time,emg1,emg2,emg3
0.027582855000218842,0.0693040293040293,0.32556776556776557,1.1958974358974357
0.04569342699687695,0.0693040293040293,0.32556776556776557,1.1958974358974357
0.05427657299878774,0.0693040293040293,0.32556776556776557,1.1958974358974357
0.0631708009968861,0.0,0.07172161172161172,0.7204395604395604
0.06873416400048882,0.0,0.07172161172161172,0.7204395604395604
0.06895127699681325,0.0,0.07172161172161172,0.7204395604395604
0.07647093600098742,0.0,0.07172161172161172,0.7204395604395604
0.08183119999739574,1.1136996336996337,0.9678388278388278,3.0687179487179486
0.08377679299883312,0.23934065934065935,0.3964835164835165,1.1282051282051282
0.08645369899750222,0.23934065934065935,0.3964835164835165,1.1282051282051282
0.09079129400197417,0.23934065934065935,0.3964835164835165,1.1282051282051282
0.0918432100006612,0.23934065934065935,0.3964835164835165,1.1282051282051282
0.09210810100194067,0.23934065934065935,0.3964835164835165,1.1282051282051282
0.09763101000135066,0.23934065934065935,0.3964835164835165,1.1282051282051282
0.09856227999989642,0.23934065934065935,0.3964835164835165,1.1282051282051282
0.10009532399999443,0.23934065934065935,0.3964835164835165,1.1282051282051282
0.10430184500000905,0.07736263736263736,0.2989743589743589,1.0137728937728938
0.10694111500197323,0.07736263736263736,0.2989743589743589,1.0137728937728938
0.11195256299834,0.07736263736263736,0.2989743589743589,1.0137728937728938
0.1168654310022248,0.07736263736263736,0.2989743589743589,1.0137728937728938
0.122374280996155,0.07736263736263736,0.2989743589743589,1.0137728937728938
0.1247382910005399,0.07736263736263736,0.2989743589743589,1.0137728937728938
0.12490658000024268,0.07736263736263736,0.2989743589743589,1.0137728937728938
0.13045173499995144,0.07736263736263736,0.2989743589743589,1.0137728937728938
0.13199180900119245,0.0,0.0975091575091575,0.684981684981685
0.13578221899661003,0.0,0.0975091575091575,0.684981684981685
0.14106334499956574,0.20146520146520144,0.07897435897435898,2.063003663003663
0.14450165900052525,0.5649084249084249,0.6124542124542125,0.8219780219780219
0.1447685149978497,0.5649084249084249,0.6124542124542125,0.8219780219780219
0.15044327899522614,0.5649084249084249,0.6124542124542125,0.8219780219780219
0.15065309799683746,0.5649084249084249,0.6124542124542125,0.8219780219780219
0.15996984700177563,0.5649084249084249,0.6124542124542125,0.8219780219780219
0.165382460996625,0.5649084249084249,0.6124542124542125,0.8219780219780219
0.16773411599569954,0.2175824175824176,0.39003663003663,1.3175824175824176
0.16796464000071865,0.2175824175824176,0.39003663003663,1.3175824175824176
0.17351924700051313,0.2175824175824176,0.39003663003663,1.3175824175824176
0.17524515799595974,0.5141391941391941,0.5544322344322344,2.6698168498168497
0.17828233900218038,0.5141391941391941,0.5544322344322344,2.6698168498168497
0.18075156299892114,1.145128205128205,0.8268131868131867,0.5641025641025641
0.180968925000343,0.0,0.07655677655677656,0.8969230769230768
0.18692816399561707,0.0,0.07655677655677656,0.8969230769230768
0.19143070100108162,0.0,0.07413919413919413,0.9517216117216116
0.19235256599495187,0.0,0.07413919413919413,0.9517216117216116
0.19392154600063805,0.0,0.07413919413919413,0.9517216117216116
0.19772933299827855,0.0,0.07413919413919413,0.9517216117216116
0.2025222410011338,0.0,0.07413919413919413,0.9517216117216116
0.20268182500149123,0.0,0.07413919413919413,0.9517216117216116
0.2074330019968329,0.0,0.07413919413919413,0.9517216117216116
0.21287328399921535,0.3795604395604395,0.24498168498168496,1.1749450549450549
0.21516866800084244,0.3795604395604395,0.24498168498168496,1.1749450549450549
0.21553309499722673,0.3795604395604395,0.24498168498168496,1.1749450549450549
0.2227585669970722,0.3795604395604395,0.24498168498168496,1.1749450549450549
0.22981033099495107,0.3795604395604395,0.24498168498168496,1.1749450549450549
0.2337477850014693,0.0,0.04029304029304029,0.7131868131868132
0.24012146899622167,0.0,0.04029304029304029,0.7131868131868132
0.24529242100106785,0.0,0.04029304029304029,0.7131868131868132
0.24695704400073737,0.0,0.19340659340659339,1.0927472527472526
0.25314977199741406,0.0,0.19340659340659339,1.0927472527472526
0.2605800410019583,0.0,0.19340659340659339,1.0927472527472526
0.26661992599838413,0.0,0.19340659340659339,1.0927472527472526
0.2735443319979822,1.0363369963369962,0.48754578754578753,1.8567032967032966
0.2777967020010692,1.0363369963369962,0.48754578754578753,1.8567032967032966
0.2792190769978333,1.0363369963369962,0.48754578754578753,1.8567032967032966
0.28627883499575546,1.0363369963369962,0.48754578754578753,1.8567032967032966
0.2911437410002691,1.0363369963369962,0.48754578754578753,1.8567032967032966
0.29524349799612537,1.0363369963369962,0.48754578754578753,1.8567032967032966
0.29863279499841155,1.0363369963369962,0.48754578754578753,1.8567032967032966
0.29898465199948987,1.0363369963369962,0.48754578754578753,1.8567032967032966
0.3037971989979269,1.0363369963369962,0.48754578754578753,1.8567032967032966
0.30403619699791307,0.39487179487179486,0.2506227106227106,1.3328937728937729
0.3101754999952391,0.9936263736263735,0.4786813186813187,1.884102564102564
0.31364905199734494,0.0,0.0838095238095238,0.7421978021978022
0.3139043689952814,0.0,0.0838095238095238,0.7421978021978022
0.3185618630013778,0.0,0.0838095238095238,0.7421978021978022
0.31879046600079164,0.0,0.0838095238095238,0.7421978021978022
0.32454116200096905,0.0,0.0838095238095238,0.7421978021978022
0.32464145999983884,0.0,0.0838095238095238,0.7421978021978022
0.3302578259972506,0.0,0.0838095238095238,0.7421978021978022
0.33049932699941564,0.020146520146520144,0.05882783882783882,0.9581684981684981
0.3357869399987976,0.020146520146520144,0.05882783882783882,0.9581684981684981
0.3395276439987356,0.020146520146520144,0.05882783882783882,0.9581684981684981
0.3437685050012078,0.020146520146520144,0.05882783882783882,0.9581684981684981
0.3454679930000566,0.020146520146520144,0.05882783882783882,0.9581684981684981
0.3487446759972954,0.020146520146520144,0.05882783882783882,0.9581684981684981
0.350344722995942,0.020146520146520144,0.05882783882783882,0.9581684981684981
0.3545307070016861,0.020146520146520144,0.05882783882783882,0.9581684981684981
0.3572074940020684,0.3489377289377289,0.1386080586080586,1.730989010989011
0.36107680699933553,0.9952380952380951,0.7816849816849816,0.4593406593406593
0.36596609000116587,0.9952380952380951,0.7816849816849816,0.4593406593406593
0.37217348699778086,0.9952380952380951,0.7816849816849816,0.4593406593406593
0.37755270100024063,1.2184615384615385,0.9114285714285715,2.186300366300366
0.37786939399666153,0.6108424908424909,0.6495238095238095,0.7695970695970695
0.3826996069983579,0.6108424908424909,0.6495238095238095,0.7695970695970695
0.38288553999882424,0.166007326007326,0.3626373626373626,1.228937728937729
0.38958098399598384,0.166007326007326,0.3626373626373626,1.228937728937729
0.3957762689969968,0.166007326007326,0.3626373626373626,1.228937728937729
0.39982000199961476,1.0742124542124543,0.523003663003663,2.8003663003663
0.40318754199688556,0.0,0.17326007326007326,1.02021978021978
0.40351761099736905,0.0,0.17326007326007326,1.02021978021978
0.41226574599568266,0.0,0.17326007326007326,1.02021978021978
0.42078994600160513,0.0,0.17326007326007326,1.02021978021978
0.4284993420005776,0.0,0.17326007326007326,1.02021978021978
0.43257620399526786,0.0,0.17326007326007326,1.02021978021978
0.43673521199525567,1.3079120879120878,1.0653479853479852,2.68996336996337
0.4417413420014782,1.0290842490842491,0.8082783882783882,0.43435897435897436
0.4435231710012886,1.0290842490842491,0.8082783882783882,0.43435897435897436
0.4465447350012255,0.5133333333333333,0.31347985347985347,1.1733333333333333
0.4491135310017853,0.5133333333333333,0.31347985347985347,1.1733333333333333
0.45470578799722716,0.5133333333333333,0.31347985347985347,1.1733333333333333
0.45510522499535,0.30058608058608055,0.3916483516483516,2.411135531135531
0.46104249299969524,0.30058608058608055,0.3916483516483516,2.411135531135531
0.46586711699637817,0.0,0.18695970695970696,0.8534065934065934
0.47275532499770634,0.6487179487179486,0.3706959706959707,1.4835897435897436
0.47868479599856073,1.211208791208791,0.8727472527472527,2.186300366300366
0.48280288399837445,1.211208791208791,0.8727472527472527,2.186300366300366
0.48452884599828394,1.211208791208791,0.8727472527472527,2.186300366300366
0.49094452599820215,1.4287912087912087,0.6358241758241758,2.647252747252747
0.4945950499968603,0.0,0.09670329670329669,0.6301831501831501
0.5003714709964697,0.3424908424908425,0.18857142857142856,1.735018315018315
0.5004771849999088,0.3424908424908425,0.18857142857142856,1.735018315018315
0.5069873039974482,0.3424908424908425,0.18857142857142856,1.735018315018315
0.5104579789986019,0.3424908424908425,0.18857142857142856,1.735018315018315
0.510551918996498,0.0,0.048351648351648346,0.7897435897435897
0.5162498860008782,0.0,0.048351648351648346,0.7897435897435897
0.516392111996538,1.1338461538461537,0.5697435897435897,3.2403663003663
0.523383804000332,1.1338461538461537,0.5697435897435897,3.2403663003663
0.5276886189967627,0.5665201465201465,0.2796336996336996,1.3764102564102565
0.5286670229979791,0.5665201465201465,0.2796336996336996,1.3764102564102565
0.5295500009960961,0.5665201465201465,0.2796336996336996,1.3764102564102565
0.5305427209968911,0.5665201465201465,0.2796336996336996,1.3764102564102565
0.5321441689957283,0.5665201465201465,0.2796336996336996,1.3764102564102565
0.5353621199974441,0.5665201465201465,0.2796336996336996,1.3764102564102565
0.5390466649987502,0.5665201465201465,0.2796336996336996,1.3764102564102565
0.5445421479962533,0.5665201465201465,0.2796336996336996,1.3764102564102565
0.5454955109962611,0.5665201465201465,0.2796336996336996,1.3764102564102565
0.5464576109952759,1.3256410256410256,0.6172893772893773,3.2677655677655677
0.5482854349975241,1.3256410256410256,0.6172893772893773,3.2677655677655677
0.5500710869964678,0.0,0.10717948717948718,0.718021978021978
0.5550338940010988,0.0,0.10717948717948718,0.718021978021978
0.5591170080006123,0.0,0.10717948717948718,0.718021978021978
0.5618273529980797,0.0,0.10717948717948718,0.718021978021978
0.5652331359960954,0.0,0.022564102564102562,0.7430036630036629
0.5654763700003969,0.0,0.022564102564102562,0.7430036630036629
0.5709389010007726,0.0,0.022564102564102562,0.7430036630036629
0.5719276699965121,0.0,0.10717948717948718,0.6503296703296703
0.5731470350001473,0.0,0.10717948717948718,0.6503296703296703
0.5733273680016282,0.0,0.10717948717948718,0.6503296703296703
0.5792831040016608,0.0,0.10717948717948718,0.6503296703296703
0.5838451939998777,0.31186813186813184,0.473040293040293,1.191062271062271
0.5841162879951298,0.13941391941391942,0.32476190476190475,1.187032967032967
0.5902033940001274,0.13941391941391942,0.32476190476190475,1.187032967032967
0.5952159029984614,0.0,0.13296703296703297,0.8252014652014652
0.5991743869963102,0.0,0.13296703296703297,0.8252014652014652
0.6032935889961664,0.904981684981685,0.7615384615384615,0.5592673992673992
0.6070790009980556,0.09831501831501832,0.2594871794871795,0.9895970695970695
0.6115331559994956,0.0,0.16197802197802197,1.3079120879120878
0.6116976709963637,0.0,0.16197802197802197,1.3079120879120878
0.6173406919988338,0.0,0.16197802197802197,1.3079120879120878
0.617611030000262,0.0,0.16197802197802197,1.3079120879120878
0.6253646350014606,0.5987545787545787,0.5681318681318681,0.7567032967032966
0.6323667690012371,0.5987545787545787,0.5681318681318681,0.7567032967032966
0.6378585989950807,0.5987545787545787,0.5681318681318681,0.7567032967032966
0.6381530899961945,0.5987545787545787,0.5681318681318681,0.7567032967032966
0.6438455039969995,0.5987545787545787,0.5681318681318681,0.7567032967032966
0.6440385879977839,0.5987545787545787,0.5681318681318681,0.7567032967032966
0.6502139669973985,0.5987545787545787,0.5681318681318681,0.7567032967032966
0.6556267609994393,0.5987545787545787,0.5681318681318681,0.7567032967032966
0.6559432880021632,1.1813919413919414,0.5552380952380952,2.946227106227106
0.6652741540019633,1.1813919413919414,0.5552380952380952,2.946227106227106
0.6745706489964505,1.1813919413919414,0.5552380952380952,2.946227106227106
0.6787166939975577,1.1435164835164835,0.9202930402930403,2.8745054945054944
0.6821790859976318,1.1435164835164835,0.9202930402930403,2.8745054945054944
0.6922587119988748,0.0,0.06446886446886446,1.0298901098901099
0.6973243579996051,0.0,0.06446886446886446,1.0298901098901099
0.701213200998609,0.0,0.06446886446886446,1.0298901098901099
0.7070735219967901,0.0,0.06446886446886446,1.0298901098901099
0.7121875820012065,0.0,0.06446886446886446,1.0298901098901099
0.7154325320007047,0.0,0.06446886446886446,1.0298901098901099
0.7162814760013134,0.0,0.06446886446886446,1.0298901098901099
0.7173992669995641,0.0,0.06446886446886446,1.0298901098901099
0.7182376339987968,0.0,0.06446886446886446,1.0298901098901099
0.7198506400018232,0.0,0.06446886446886446,1.0298901098901099
0.7263083319994621,0.0,0.06446886446886446,1.0298901098901099
0.7304273929985357,0.0,0.06446886446886446,1.0298901098901099
0.7335576530022081,0.0,0.06446886446886446,1.0298901098901099
0.735169893996499,0.0,0.06446886446886446,1.0298901098901099
0.7416328819963383,0.5753846153846153,0.23531135531135527,2.017875457875458
0.7449299399959273,0.5753846153846153,0.23531135531135527,2.017875457875458
0.7459683060005773,0.5753846153846153,0.23531135531135527,2.017875457875458
0.7471214289980708,0.5753846153846153,0.23531135531135527,2.017875457875458
0.7472862689974136,0.5753846153846153,0.23531135531135527,2.017875457875458
0.7520159490013612,0.5753846153846153,0.23531135531135527,2.017875457875458
0.7601260660012485,0.5753846153846153,0.23531135531135527,2.017875457875458
0.7648656029996346,0.2683516483516483,0.12893772893772892,1.9542124542124542
0.7650271219972637,0.2683516483516483,0.12893772893772892,1.9542124542124542
0.771838264001417,0.2683516483516483,0.12893772893772892,1.9542124542124542
0.7759593859955203,0.30542124542124544,0.4432234432234432,2.386959706959707
0.7780511089949869,0.30542124542124544,0.4432234432234432,2.386959706959707
0.7790651159957633,0.30542124542124544,0.4432234432234432,2.386959706959707
0.7800117579972721,0.30542124542124544,0.4432234432234432,2.386959706959707
0.7816979199997149,0.30542124542124544,0.4432234432234432,2.386959706959707
0.7856086390020209,0.30542124542124544,0.4432234432234432,2.386959706959707
0.7923593949963106,0.30542124542124544,0.4432234432234432,2.386959706959707
0.7964735880013905,0.30542124542124544,0.22564102564102564,2.3515018315018312
0.7988961349983583,0.942051282051282,0.43677655677655675,2.4756043956043956
0.7991418300007354,0.942051282051282,0.43677655677655675,2.4756043956043956
0.8048650479977368,0.942051282051282,0.43677655677655675,2.4756043956043956
0.8051419619951048,0.942051282051282,0.43677655677655675,2.4756043956043956
0.8138970919972053,0.942051282051282,0.43677655677655675,2.4756043956043956
0.8180298629958997,0.942051282051282,0.43677655677655675,2.4756043956043956
0.8213735070021357,0.942051282051282,0.43677655677655675,2.4756043956043956
0.8216491989951464,0.942051282051282,0.43677655677655675,2.4756043956043956
0.8275977359953686,0.942051282051282,0.43677655677655675,2.4756043956043956
0.8317613409963087,0.942051282051282,0.43677655677655675,2.4756043956043956
0.8342497539997566,0.9098168498168498,0.9283516483516483,2.905128205128205
0.841340166000009,0.9098168498168498,0.9283516483516483,2.905128205128205
0.8454569039968192,0.8598534798534798,0.7768498168498168,0.43274725274725273
0.8477953699984937,0.0,0.02901098901098901,0.842124542124542
0.8479740959955961,0.0,0.02901098901098901,0.842124542124542
0.8544059260020731,0.0,0.02901098901098901,0.842124542124542
0.8577957629968296,0.0,0.02901098901098901,0.842124542124542
0.8579858829980367,0.792967032967033,0.7397802197802198,0.48432234432234433
0.863153603997489,0.792967032967033,0.7397802197802198,0.48432234432234433
0.8671777970012045,0.792967032967033,0.7397802197802198,0.48432234432234433
0.869902758000535,0.792967032967033,0.7397802197802198,0.48432234432234433
0.8761134320011479,0.792967032967033,0.7397802197802198,0.48432234432234433
0.8801218859953224,0.792967032967033,0.7397802197802198,0.48432234432234433
0.8841317179976613,0.3658608058608058,0.5399267399267399,1.1805860805860806
0.8896633469994413,0.0,0.18695970695970696,1.1725274725274726
0.8898970869995537,0.0,0.18695970695970696,1.1725274725274726
0.8955563869967591,0.0,0.18695970695970696,1.1725274725274726
0.8958956919959746,0.0,0.18695970695970696,1.1725274725274726
0.9008260529953986,0.0,0.18695970695970696,1.1725274725274726
0.907217652995314,0.0,0.18695970695970696,1.1725274725274726
0.9106143710014294,0.0,0.18695970695970696,1.1725274725274726
0.9109050609986298,0.0,0.18695970695970696,1.1725274725274726
0.9163597000006121,0.0,0.18695970695970696,1.1725274725274726
0.9187932400018326,0.3336263736263736,0.25142857142857145,2.3724542124542123
0.926715392000915,0.3336263736263736,0.25142857142857145,2.3724542124542123
0.931796355995175,0.0,0.1676190476190476,0.967032967032967
0.9349998359975871,0.0,0.1676190476190476,0.967032967032967
0.9359947859993554,0.224029304029304,0.09509157509157509,2.0734798534798533
0.9376328169964836,0.224029304029304,0.09509157509157509,2.0734798534798533
0.9419812400010414,0.224029304029304,0.09509157509157509,2.0734798534798533
0.9428618609963451,0.224029304029304,0.09509157509157509,2.0734798534798533
0.943803215996013,0.224029304029304,0.09509157509157509,2.0734798534798533
0.9454808500013314,0.224029304029304,0.09509157509157509,2.0734798534798533
0.9496419389979565,0.224029304029304,0.09509157509157509,2.0734798534798533
0.9513048039952992,0.224029304029304,0.09509157509157509,2.0734798534798533
0.9570300499981386,0.224029304029304,0.09509157509157509,2.0734798534798533
0.9630645969955367,1.1652747252747253,0.5721611721611721,2.9865201465201463
0.9670352979956078,0.11282051282051282,0.2917216117216117,0.8848351648351648
0.9714516009989893,0.11282051282051282,0.2917216117216117,0.8848351648351648
0.9731872049960657,0.0,0.07978021978021978,0.7365567765567765
0.9754595319973305,0.0,0.07978021978021978,0.7365567765567765
0.9756385879954905,0.0,0.07978021978021978,0.7365567765567765
0.9814317810014472,1.2216849816849817,0.850989010989011,0.8284249084249083
0.9815428779984359,1.2216849816849817,0.850989010989011,0.8284249084249083
0.9872640899993712,1.2216849816849817,0.850989010989011,0.8284249084249083
0.996253823999723,0.0,0.0821978021978022,0.7921611721611721
1.0007821330000297,0.0,0.0821978021978022,0.7921611721611721
1.0026093659980688,0.6882051282051282,0.693040293040293,1.016190476190476
1.0078744490019744,0.6882051282051282,0.693040293040293,1.016190476190476
1.0082984039981966,0.6882051282051282,0.693040293040293,1.016190476190476
1.0162175149962422,0.6882051282051282,0.693040293040293,1.016190476190476
1.0247851789972628,0.6882051282051282,0.693040293040293,1.016190476190476
1.0291214579992811,0.0,0.1523076923076923,0.850989010989011
1.0299962950011832,0.0,0.05641025641025641,0.9775091575091575
1.0316013490009937,0.0,0.05641025641025641,0.9775091575091575
1.035408177995123,0.0,0.05641025641025641,0.9775091575091575
1.0433851639973,0.0,0.05641025641025641,0.9775091575091575
1.047519667998131,0.0,0.05641025641025641,0.9775091575091575
1.0508127360008075,0.0,0.05641025641025641,0.9775091575091575
1.0517146659985883,1.2861538461538462,0.9283516483516483,2.465934065934066
1.053966738996678,1.2861538461538462,0.9283516483516483,2.465934065934066
1.0542593329955707,0.3626373626373626,0.2836630036630036,1.7857875457875456
1.062412235994998,0.3626373626373626,0.2836630036630036,1.7857875457875456
1.069792515001609,0.0,0.17326007326007326,1.2216849816849817
1.0773047559996485,0.0,0.17326007326007326,1.2216849816849817
1.0828414999996312,0.0,0.17326007326007326,1.2216849816849817
1.0830683599997428,0.0,0.17326007326007326,1.2216849816849817
1.092922080999415,0.0,0.045128205128205125,0.9017582417582416
1.1004731899956823,0.0,0.045128205128205125,0.9017582417582416
1.1055492809973657,0.0,0.045128205128205125,0.9017582417582416
1.1098937919960008,0.0,0.045128205128205125,0.9017582417582416
1.1101161819970002,0.0,0.045128205128205125,0.9017582417582416
1.116073855999275,0.0,0.045128205128205125,0.9017582417582416
1.1216295759950299,0.0,0.045128205128205125,0.9017582417582416
1.1225492309968104,0.0,0.045128205128205125,0.9017582417582416
1.1234647370001767,0.0,0.045128205128205125,0.9017582417582416
1.1243562800009386,0.0,0.045128205128205125,0.9017582417582416
1.1268732390017249,0.0,0.045128205128205125,0.9017582417582416
1.131684496998787,1.4336263736263737,0.6108424908424909,2.936556776556776
1.1372630569967441,1.2917948717948717,0.9904029304029303,2.7205860805860804
1.1375870799965924,1.2917948717948717,0.9904029304029303,2.7205860805860804
1.142127111001173,1.2917948717948717,0.9904029304029303,2.7205860805860804
1.1424710209976183,1.2917948717948717,0.9904029304029303,2.7205860805860804
1.1468029699972249,1.2917948717948717,0.9904029304029303,2.7205860805860804
1.1485337670019362,1.2917948717948717,0.9904029304029303,2.7205860805860804
1.1523861739988206,1.2917948717948717,0.9904029304029303,2.7205860805860804
1.156292822000978,1.2917948717948717,0.9904029304029303,2.7205860805860804
1.1630146149982465,1.2917948717948717,0.9904029304029303,2.7205860805860804
1.1668016600015108,1.2917948717948717,0.9904029304029303,2.7205860805860804
1.1746133279957576,1.2917948717948717,0.9904029304029303,2.7205860805860804
1.1802646149953944,0.0,0.09267399267399268,0.6471062271062271
1.189834841999982,0.0,0.09267399267399268,0.6471062271062271
1.1972213609988103,0.0,0.09267399267399268,0.6471062271062271
1.2014328479999676,1.1894505494505494,0.5842490842490843,2.9486446886446886
1.2062893859983888,1.1894505494505494,0.5842490842490843,2.9486446886446886
1.2123723940021591,1.1894505494505494,0.5842490842490843,2.9486446886446886
1.2176651089976076,1.1894505494505494,0.5842490842490843,2.9486446886446886
1.2180231250022189,1.1894505494505494,0.5842490842490843,2.9486446886446886
1.2274814689953928,1.1894505494505494,0.5842490842490843,2.9486446886446886
1.234685539995553,1.1894505494505494,0.5842490842490843,2.9486446886446886
1.2396303240020643,1.1894505494505494,0.5842490842490843,2.9486446886446886
1.2433836950003752,1.1894505494505494,0.5842490842490843,2.9486446886446886
1.2486492629977874,0.06688644688644689,0.2498168498168498,0.9065934065934066
1.2523338839964708,0.06688644688644689,0.2498168498168498,0.9065934065934066
1.2524513829994248,0.06688644688644689,0.2498168498168498,0.9065934065934066
1.2576319899962982,0.06688644688644689,0.2498168498168498,0.9065934065934066
1.2614304469971103,0.06688644688644689,0.2498168498168498,0.9065934065934066
1.2658750859991414,0.06688644688644689,0.2498168498168498,0.9065934065934066
1.2667796579989954,0.06688644688644689,0.2498168498168498,0.9065934065934066
1.26857072400162,0.06688644688644689,0.2498168498168498,0.9065934065934066
1.2716799529953278,0.06688644688644689,0.2498168498168498,0.9065934065934066
1.274017459996685,0.06688644688644689,0.2498168498168498,0.9065934065934066
1.2743141829996603,0.06688644688644689,0.2498168498168498,0.9065934065934066
1.2797358879979583,0.06688644688644689,0.2498168498168498,0.9065934065934066
1.2823077979992377,0.06688644688644689,0.2498168498168498,0.9065934065934066
1.2877864690017304,0.06688644688644689,0.2498168498168498,0.9065934065934066
1.289501287996245,0.06688644688644689,0.2498168498168498,0.9065934065934066
1.2932141450000927,0.0,0.10717948717948718,0.6825641025641025
1.2977263659995515,0.0,0.10717948717948718,0.6825641025641025
1.298101530999702,0.0,0.10717948717948718,0.6825641025641025
1.3028971969979466,0.0,0.10717948717948718,0.6825641025641025
1.3030383079967578,0.5391208791208791,0.6229304029304029,1.2104029304029302
1.3084807409977657,0.5391208791208791,0.6229304029304029,1.2104029304029302
1.3102416440015077,0.5391208791208791,0.6229304029304029,1.2104029304029302
1.3135151009992114,0.5391208791208791,0.6229304029304029,1.2104029304029302
1.3152457229953143,0.5391208791208791,0.6229304029304029,1.2104029304029302
1.318178381996404,0.5391208791208791,0.6229304029304029,1.2104029304029302
1.3212375539951609,0.90014652014652,0.8292307692307692,0.42065934065934063
1.3236344499964616,0.06205128205128205,0.22564102564102564,0.9009523809523808
1.323844441001711,0.0,0.16842490842490843,1.1161172161172161
1.3293494210010977,0.0,0.16842490842490843,1.1161172161172161
1.3303575230020215,0.0,0.16842490842490843,1.1161172161172161
1.331216468999628,0.0,0.16842490842490843,1.1161172161172161
1.3328942020016257,0.0,0.16842490842490843,1.1161172161172161
1.3367872509988956,0.0,0.16842490842490843,1.1161172161172161
1.3414006120001432,0.0,0.16842490842490843,1.1161172161172161
1.3416167749965098,0.0,0.16842490842490843,1.1161172161172161
1.3461378659994807,0.0,0.16842490842490843,1.1161172161172161
1.3464468160018441,0.0,0.16842490842490843,1.1161172161172161
1.3516062799972133,0.0,0.16842490842490843,1.1161172161172161
1.3553144379984587,1.0919413919413918,0.9646153846153847,3.098534798534798
1.35546310099744,1.1161172161172161,0.61003663003663,3.3
1.3606185609969543,1.1161172161172161,0.61003663003663,3.3
1.36357467599737,1.1161172161172161,0.61003663003663,3.3
1.365947715996299,1.1161172161172161,0.61003663003663,3.3
1.3662004389989306,1.1161172161172161,0.61003663003663,3.3
1.3713747930014506,1.1161172161172161,0.61003663003663,3.3
1.3744303779967595,1.1161172161172161,0.61003663003663,3.3
1.3768028510021395,1.1161172161172161,0.61003663003663,3.3
1.3770266200008336,1.1161172161172161,0.61003663003663,3.3
1.3822064409978339,1.1161172161172161,0.61003663003663,3.3
1.3853793620000943,0.10637362637362638,0.27076923076923076,0.917069597069597
1.387759871999151,0.10637362637362638,0.27076923076923076,0.917069597069597
1.3880161519991816,0.10637362637362638,0.27076923076923076,0.917069597069597
1.3927809500019066,0.10637362637362638,0.27076923076923076,0.917069597069597
1.393063103001623,0.10637362637362638,0.27076923076923076,0.917069597069597
1.3985338560014497,0.10637362637362638,0.27076923076923076,0.917069597069597
1.4001805930020055,0.10637362637362638,0.27076923076923076,0.917069597069597
1.4054802729951916,0.0,0.22967032967032966,0.967032967032967
1.4078577510008472,0.0,0.22967032967032966,0.967032967032967
1.4180639830010477,0.0,0.22967032967032966,0.967032967032967
1.4257926349964691,0.0,0.22967032967032966,0.967032967032967
1.4331137139961356,0.0,0.22967032967032966,0.967032967032967
1.4413402499994845,0.0,0.22967032967032966,0.967032967032967
1.4489737979965867,0.0,0.22967032967032966,0.967032967032967
1.4532394470006693,1.411062271062271,0.3038095238095238,3.0493772893772895
1.4535657789965626,0.9920146520146519,0.6672527472527472,1.6173626373626373
1.458249565999722,0.9920146520146519,0.6672527472527472,1.6173626373626373
1.458377841001493,0.9920146520146519,0.6672527472527472,1.6173626373626373
1.4639931470010197,0.9920146520146519,0.6672527472527472,1.6173626373626373
1.4643230159999803,0.9920146520146519,0.6672527472527472,1.6173626373626373
1.4696140469968668,0.9920146520146519,0.6672527472527472,1.6173626373626373
1.4721267290005926,0.9920146520146519,0.6672527472527472,1.6173626373626373
1.4768249779954203,0.9920146520146519,0.6672527472527472,1.6173626373626373
1.4770652439983678,0.9920146520146519,0.6672527472527472,1.6173626373626373
1.482495892996667,0.9920146520146519,0.6672527472527472,1.6173626373626373
1.4833328620006796,0.9920146520146519,0.6672527472527472,1.6173626373626373
1.4859553479982424,0.9920146520146519,0.6672527472527472,1.6173626373626373
1.4909852569981012,0.7534798534798535,0.4625641025641025,1.5005128205128204
1.4943409799961955,0.7534798534798535,0.4625641025641025,1.5005128205128204
1.4953695779986447,0.7534798534798535,0.4625641025641025,1.5005128205128204
1.4963731519965222,0.7534798534798535,0.4625641025641025,1.5005128205128204
1.4973970979990554,1.2531135531135529,0.9025641025641026,0.8106959706959707
1.4983660879952367,1.2531135531135529,0.9025641025641026,0.8106959706959707
1.4986916830021073,1.2531135531135529,0.9025641025641026,0.8106959706959707
1.5034489190002205,1.2531135531135529,0.9025641025641026,0.8106959706959707
1.5036204569987603,0.0,0.05318681318681319,0.6978754578754578
1.5088961660003406,0.06124542124542124,0.13538461538461538,0.8171428571428572
1.5119811699987622,0.0,0.10556776556776555,1.058901098901099
1.5136997239969787,0.5455677655677655,0.6092307692307692,2.6802930402930403
1.5171494739988702,0.5455677655677655,0.6092307692307692,2.6802930402930403
1.5173750819958514,0.5455677655677655,0.6092307692307692,2.6802930402930403
1.5231564279965824,0.5455677655677655,0.6092307692307692,2.6802930402930403
1.5290150379951228,0.0,0.04351648351648352,0.9895970695970695
1.5341526589982095,0.037875457875457874,0.051575091575091575,0.9404395604395603
1.537920058995951,0.037875457875457874,0.051575091575091575,0.9404395604395603
1.5431121910005459,0.037875457875457874,0.051575091575091575,0.9404395604395603
1.546426066001004,0.037875457875457874,0.051575091575091575,0.9404395604395603
1.5473393659995054,1.1693040293040293,0.5826373626373627,2.092014652014652
1.5491502889999538,1.1693040293040293,0.5826373626373627,2.092014652014652
1.551549054995121,1.1693040293040293,0.5826373626373627,2.092014652014652
1.5517696120004985,1.1435164835164835,0.8767765567765567,2.274945054945055
1.556392884995148,1.1435164835164835,0.8767765567765567,2.274945054945055
1.556609669001773,1.1435164835164835,0.8767765567765567,2.274945054945055
1.561341659995378,1.1435164835164835,0.8767765567765567,2.274945054945055
1.5615750439974363,1.1435164835164835,0.8767765567765567,2.274945054945055
1.5663303219989757,1.1435164835164835,0.8767765567765567,2.274945054945055
1.5718372389965225,1.1435164835164835,0.8767765567765567,2.274945054945055
1.5733594089979306,1.1435164835164835,0.8767765567765567,2.274945054945055
1.5777381829975639,1.1435164835164835,0.8767765567765567,2.274945054945055
1.5793164650021936,1.1435164835164835,0.8767765567765567,2.274945054945055
1.5831557029960095,1.1435164835164835,0.8767765567765567,2.274945054945055
1.58771710399742,1.1435164835164835,0.8767765567765567,2.274945054945055
1.5886765710019972,0.0,0.1378021978021978,1.1032234432234431
1.5895235700008925,0.0,0.1378021978021978,1.1032234432234431
1.5910822049991111,0.0,0.1378021978021978,1.1032234432234431
1.5950464259949513,0.0,0.1378021978021978,1.1032234432234431
1.5989447140018456,0.423076923076923,0.3046153846153846,2.5046153846153842
1.604449589001888,0.423076923076923,0.3046153846153846,2.5046153846153842
1.6067657570019946,0.4851282051282051,0.31267399267399265,1.3965567765567766
1.6070342659950256,0.4851282051282051,0.31267399267399265,1.3965567765567766
1.6123166879988275,0.4851282051282051,0.31267399267399265,1.3965567765567766
1.615584058999957,0.4851282051282051,0.31267399267399265,1.3965567765567766
1.6171240309995483,0.4851282051282051,0.31267399267399265,1.3965567765567766
1.620940688000701,0.4851282051282051,0.31267399267399265,1.3965567765567766
1.6257135010018828,0.4851282051282051,0.31267399267399265,1.3965567765567766
1.6258940959960455,1.3659340659340657,0.6551648351648351,3.2685714285714287
1.6304989049967844,1.3659340659340657,0.6551648351648351,3.2685714285714287
1.63068061699596,1.3659340659340657,0.6551648351648351,3.2685714285714287
1.6360863739973865,1.3659340659340657,0.6551648351648351,3.2685714285714287
1.637789629996405,1.3659340659340657,0.6551648351648351,3.2685714285714287
1.64081725700089,1.3659340659340657,0.6551648351648351,3.2685714285714287
1.6432675699979882,0.045128205128205125,0.1805128205128205,0.842124542124542
1.6434512420019018,0.045128205128205125,0.1805128205128205,0.842124542124542
1.6485573039972223,0.045128205128205125,0.1805128205128205,0.842124542124542
1.6530173339997418,0.045128205128205125,0.1805128205128205,0.842124542124542
1.6532430709994514,0.045128205128205125,0.1805128205128205,0.842124542124542
1.6588451779971365,0.045128205128205125,0.1805128205128205,0.842124542124542
1.6598362459990312,0.8630769230769231,0.39406593406593404,2.4046886446886444
1.6601624679969973,0.8630769230769231,0.39406593406593404,2.4046886446886444
1.6656922530019074,0.8630769230769231,0.39406593406593404,2.4046886446886444
1.666597219002142,0.8630769230769231,0.39406593406593404,2.4046886446886444
1.668222161999438,0.8630769230769231,0.39406593406593404,2.4046886446886444
1.6719429689983372,0.8630769230769231,0.39406593406593404,2.4046886446886444
1.6721213829951012,0.8630769230769231,0.39406593406593404,2.4046886446886444
1.6773396709977533,0.3739194139194139,0.24901098901098898,2.648058608058608
1.681034109002212,0.3739194139194139,0.24901098901098898,2.648058608058608
1.6863088300015079,0.0,0.07655677655677656,0.772014652014652
1.6886396539994166,0.0,0.07655677655677656,0.772014652014652
1.6888577649951912,0.0,0.07655677655677656,0.772014652014652
1.6940990119983326,0.0,0.052380952380952375,0.7373626373626374
1.698041005001869,0.0,0.052380952380952375,0.7373626373626374
1.7019556469967938,0.0,0.052380952380952375,0.7373626373626374
1.70496397199895,0.0,0.052380952380952375,0.7373626373626374
1.7079519830003846,0.0,0.052380952380952375,0.7373626373626374
1.709618340995803,0.0,0.052380952380952375,0.7373626373626374
1.7140829080017284,0.0,0.052380952380952375,0.7373626373626374
1.714298806997249,0.0,0.052380952380952375,0.7373626373626374
1.7197021009997115,0.0,0.052380952380952375,0.7373626373626374
1.7214326679968508,0.0,0.052380952380952375,0.7373626373626374
1.723754997998185,0.0,0.052380952380952375,0.7373626373626374
1.723985789998551,0.0,0.052380952380952375,0.7373626373626374
1.7293318809970515,0.0,0.052380952380952375,0.7373626373626374
1.7310956770015764,0.0,0.052380952380952375,0.7373626373626374
1.7349326179974014,0.0,0.052380952380952375,0.7373626373626374
1.7402751119952882,0.664029304029304,0.30945054945054945,2.075897435897436
1.7406025439995574,1.0226373626373626,0.8179487179487179,0.24014652014652016
1.749543612000707,1.0226373626373626,0.8179487179487179,0.24014652014652016
1.756171754001116,0.4859340659340659,0.3489377289377289,1.311135531135531
1.76064369300002,0.4859340659340659,0.3489377289377289,1.311135531135531
1.7609159279963933,0.4859340659340659,0.3489377289377289,1.311135531135531
1.7708234759993502,0.4859340659340659,0.3489377289377289,1.311135531135531
1.7793941759955487,0.9339926739926739,0.5367032967032966,2.5400732600732603
1.7845950449991506,1.2474725274725273,0.6003663003663003,3.079194139194139
1.7891690350006684,1.2474725274725273,0.6003663003663003,3.079194139194139
1.7980417689977912,0.03948717948717949,0.09186813186813186,1.0315018315018314
1.8049528839983395,0.03948717948717949,0.09186813186813186,1.0315018315018314
1.8093732709967298,0.5439560439560439,0.3142857142857142,1.2007326007326007
1.8107848930012551,0.5439560439560439,0.3142857142857142,1.2007326007326007
1.8179244989951258,0.5439560439560439,0.3142857142857142,1.2007326007326007
1.823304746998474,0.5439560439560439,0.3142857142857142,1.2007326007326007
1.8236224819993367,0.1095970695970696,0.18857142857142856,1.0701831501831502
1.8324342310006614,0.1095970695970696,0.18857142857142856,1.0701831501831502
1.8393832009969628,0.1095970695970696,0.18857142857142856,1.0701831501831502
1.8455731079957332,0.1095970695970696,0.18857142857142856,1.0701831501831502
1.849895783001557,0.1095970695970696,0.18857142857142856,1.0701831501831502
1.8513712299973122,0.01934065934065934,0.08058608058608058,0.693040293040293
1.859125438000774,0.01934065934065934,0.08058608058608058,0.693040293040293
1.8660071569975116,0.28124542124542123,0.09025641025641025,1.8929670329670327
1.8718301330009126,1.361098901098901,0.6495238095238095,2.6964102564102563
1.8789250519985217,0.0,0.10395604395604395,0.7824908424908424
1.8857954129998689,1.2386080586080586,0.5882783882783883,3.0614652014652015
1.889681845997984,1.2386080586080586,0.5882783882783883,3.0614652014652015
1.893439090999891,1.2386080586080586,0.5882783882783883,3.0614652014652015
1.8988909229956334,1.2386080586080586,0.5882783882783883,3.0614652014652015
1.9003907500009518,1.2386080586080586,0.5882783882783883,3.0614652014652015
1.905266791000031,1.2386080586080586,0.5882783882783883,3.0614652014652015
1.9100910189954448,1.2386080586080586,0.5882783882783883,3.0614652014652015
1.9102183040013188,1.2386080586080586,0.5882783882783883,3.0614652014652015
1.9150472809997154,1.2386080586080586,0.5882783882783883,3.0614652014652015
1.9198274459995446,1.2386080586080586,0.5882783882783883,3.0614652014652015
1.9200825009975233,1.2386080586080586,0.5882783882783883,3.0614652014652015
1.9248285319990828,1.2386080586080586,0.5882783882783883,3.0614652014652015
1.9251354389998596,1.2386080586080586,0.5882783882783883,3.0614652014652015
1.9298448970002937,1.2386080586080586,0.5882783882783883,3.0614652014652015
1.9301379280004767,1.2386080586080586,0.5882783882783883,3.0614652014652015
1.9342910170016694,1.2386080586080586,0.5882783882783883,3.0614652014652015
1.9377694520007935,1.2386080586080586,0.5882783882783883,3.0614652014652015
1.9385369250012445,1.2386080586080586,0.5882783882783883,3.0614652014652015
1.940616175001196,1.2386080586080586,0.5882783882783883,3.0614652014652015
1.942117906997737,1.2386080586080586,0.5882783882783883,3.0614652014652015
1.9462202489958145,1.2386080586080586,0.5882783882783883,3.0614652014652015
1.9489809360020445,1.2386080586080586,0.5882783882783883,3.0614652014652015
1.9530790229982813,1.2386080586080586,0.5882783882783883,3.0614652014652015
1.9558712649959489,0.3706959706959707,0.29655677655677654,2.5424908424908423
1.9599162209997303,0.3706959706959707,0.29655677655677654,2.5424908424908423
1.963405476999469,0.3706959706959707,0.29655677655677654,2.5424908424908423
1.9641614040010609,0.12974358974358974,0.2756043956043956,0.8719413919413919
1.9656430009999895,0.12974358974358974,0.2756043956043956,0.8719413919413919
1.970400400001381,0.12974358974358974,0.2756043956043956,0.8719413919413919
1.9706733459970565,0.12974358974358974,0.2756043956043956,0.8719413919413919
1.975429036996502,0.12974358974358974,0.2756043956043956,0.8719413919413919
1.980275107001944,0.12974358974358974,0.2756043956043956,0.8719413919413919
1.9804498809971847,0.12974358974358974,0.2756043956043956,0.8719413919413919
1.985355928001809,0.12974358974358974,0.2756043956043956,0.8719413919413919
1.9894983609992778,0.12974358974358974,0.2756043956043956,0.8719413919413919
1.9916365890021552,0.12974358974358974,0.2756043956043956,0.8719413919413919
1.9930772699954105,0.12974358974358974,0.2756043956043956,0.8719413919413919
1.9980111670010956,0.12974358974358974,0.2756043956043956,0.8719413919413919
2.0028528240000014,0.12974358974358974,0.2756043956043956,0.8719413919413919
2.0029676429985557,0.0,0.14908424908424908,1.1797802197802196
2.0084026679978706,0.0,0.14908424908424908,1.1797802197802196
2.0106625810003607,0.0,0.14908424908424908,1.1797802197802196
2.010883119000937,0.0,0.14908424908424908,1.1797802197802196
2.018295700996532,1.270842490842491,0.9339926739926739,2.581172161172161
2.024136260995874,1.270842490842491,0.9339926739926739,2.581172161172161
2.031764059996931,0.0,0.2191941391941392,1.0476190476190474
2.03828764300124,0.0,0.2191941391941392,1.41992673992674
2.0434783160017105,0.0,0.2191941391941392,1.41992673992674
2.047295573996962,0.10073260073260072,0.26915750915750913,0.9122344322344322
2.0508033559963224,0.5165567765567766,0.30139194139194136,1.2490842490842489
2.050993295997614,0.5165567765567766,0.30139194139194136,1.2490842490842489
2.0588607780009625,0.5165567765567766,0.30139194139194136,1.2490842490842489
2.0649574529961683,0.5165567765567766,0.30139194139194136,1.2490842490842489
2.070050182999694,0.0,0.16358974358974357,1.1547985347985346
2.073248104999948,0.0,0.16358974358974357,1.1547985347985346
2.0747171479961253,0.0,0.16358974358974357,1.1547985347985346
2.082464125000115,0.0,0.16358974358974357,1.1547985347985346
2.088409338997735,1.1596336996336996,0.581025641025641,2.9035164835164835
2.09309464499529,1.1596336996336996,0.581025641025641,2.9035164835164835
2.0979736959998263,1.1596336996336996,0.581025641025641,2.9035164835164835
2.1028619009957765,1.1596336996336996,0.581025641025641,2.9035164835164835
2.1029623649956193,1.1596336996336996,0.581025641025641,2.9035164835164835
2.107822762998694,1.1596336996336996,0.581025641025641,2.9035164835164835
2.1127126659994246,0.0,0.11684981684981684,1.0323076923076921
2.1179160259998753,0.0,0.11684981684981684,1.0323076923076921
2.1212835459955386,0.0,0.11684981684981684,1.0323076923076921
2.122127554001054,0.1087912087912088,0.33684981684981685,1.1008058608058606
2.1236175379963242,0.1087912087912088,0.33684981684981685,1.1008058608058606
2.128393797996978,0.1087912087912088,0.33684981684981685,1.1008058608058606
2.1284910460017272,0.0,0.047545787545787546,0.9259340659340659
2.133844464995491,0.0,0.047545787545787546,0.9259340659340659
2.135597852000501,0.0,0.047545787545787546,0.9259340659340659
2.139392017001228,0.0,0.047545787545787546,0.9259340659340659
2.143773930001771,0.0,0.047545787545787546,0.9259340659340659
2.1447166799989645,0.0,0.047545787545787546,0.9259340659340659
2.146274683000229,0.0,0.047545787545787546,0.9259340659340659
2.150416532997042,0.0,0.047545787545787546,0.9259340659340659
2.1526802709995536,0.0,0.047545787545787546,0.9259340659340659
2.1529455529962434,0.0,0.047545787545787546,0.9259340659340659
2.1583726099997875,0.22967032967032966,0.07655677655677656,2.024322344322344
2.1599413020012435,1.0258608058608059,0.8002197802197801,0.3142857142857142
2.1645666280019213,1.0258608058608059,0.8002197802197801,0.3142857142857142
2.1647403839961044,0.0,0.05802197802197802,1.087106227106227
2.170053410001856,1.452161172161172,0.6269597069597069,2.7786080586080586
2.1731845760004944,0.27318681318681315,0.3384615384615384,1.0653479853479852
2.1755391900005634,0.27318681318681315,0.3384615384615384,1.0653479853479852
2.175784927996574,0.27318681318681315,0.3384615384615384,1.0653479853479852
2.1806399319975753,0.27318681318681315,0.3384615384615384,1.0653479853479852
2.186021476998576,0.27318681318681315,0.3384615384615384,1.0653479853479852
2.1875671349989716,0.19340659340659339,0.3658608058608058,1.1942857142857142
2.19206695399771,0.19340659340659339,0.3658608058608058,1.1942857142857142
2.1929508079992956,0.19340659340659339,0.3658608058608058,1.1942857142857142
2.19452221699612,0.19340659340659339,0.3658608058608058,1.1942857142857142
2.1982434059973457,0.19340659340659339,0.3658608058608058,1.1942857142857142
2.198368377998122,1.00007326007326,0.7647619047619048,0.30864468864468864
2.2032480369962286,1.00007326007326,0.7647619047619048,0.30864468864468864
2.208502989997214,1.00007326007326,0.7647619047619048,0.30864468864468864
2.2123997660019086,1.00007326007326,0.7647619047619048,0.30864468864468864
2.2170694199958234,1.0524542124542122,0.9154578754578755,3.0735531135531136
2.2172193840015098,1.0524542124542122,0.9154578754578755,3.0735531135531136
2.22194235400093,1.0524542124542122,0.9154578754578755,3.0735531135531136
2.2222434939976665,1.0524542124542122,0.9154578754578755,3.0735531135531136
2.226890640995407,1.0524542124542122,0.9154578754578755,3.0735531135531136
2.227744153999083,1.0524542124542122,0.9154578754578755,3.0735531135531136
2.2295371079962933,1.0524542124542122,0.9154578754578755,3.0735531135531136
2.232614182998077,1.0524542124542122,0.9154578754578755,3.0735531135531136
2.2350119699985953,1.0524542124542122,0.9154578754578755,3.0735531135531136
2.235173193999799,1.0524542124542122,0.9154578754578755,3.0735531135531136
2.2397070719962358,1.0524542124542122,0.9154578754578755,3.0735531135531136
2.2405939719974413,1.0524542124542122,0.9154578754578755,3.0735531135531136
2.2420967209982336,1.0524542124542122,0.9154578754578755,3.0735531135531136
2.2461968029965647,1.0524542124542122,0.9154578754578755,3.0735531135531136
2.2489834669977427,1.0524542124542122,0.9154578754578755,3.0735531135531136
2.2525256169974455,1.0524542124542122,0.9154578754578755,3.0735531135531136
2.2527878010005224,1.0524542124542122,0.9154578754578755,3.0735531135531136
2.2575309019957785,0.25465201465201465,0.12893772893772892,2.045274725274725
2.2624379900007625,0.66,0.24578754578754577,2.174212454212454
2.2665949029978947,0.0,0.16197802197802197,1.1378754578754577
2.2693987899983767,0.0,0.16197802197802197,1.1378754578754577
2.2729487129981862,0.0,0.16197802197802197,1.1378754578754577
2.2731563199995435,0.0,0.16197802197802197,1.1378754578754577
2.277895619998162,0.0,0.16197802197802197,1.1378754578754577
2.2780219849955756,0.0,0.16197802197802197,1.1378754578754577
2.2827364089971525,0.0,0.16197802197802197,1.1378754578754577
2.282958805997623,0.0,0.16197802197802197,1.1378754578754577
2.287790759000927,0.0,0.16197802197802197,1.1378754578754577
2.2879152669993346,0.0,0.20307692307692307,1.3917216117216116
2.2925886759985588,0.0,0.20307692307692307,1.3917216117216116
2.2928792489983607,0.07413919413919413,0.2071062271062271,0.7027106227106227
2.2976066779956454,0.07413919413919413,0.2071062271062271,0.7027106227106227
2.297782923997147,0.35216117216117215,0.2756043956043956,1.6931135531135528
2.302693484001793,0.35216117216117215,0.2756043956043956,1.6931135531135528
2.306823735998478,0.35216117216117215,0.2756043956043956,1.6931135531135528
2.3102408749982715,0.35216117216117215,0.2756043956043956,1.6931135531135528
2.310569494999072,0.35216117216117215,0.2756043956043956,1.6931135531135528
2.3153749789998983,0.35216117216117215,0.2756043956043956,1.6931135531135528
2.315501637000125,0.35216117216117215,0.2756043956043956,1.6931135531135528
2.320236544001091,0.35216117216117215,0.2756043956043956,1.6931135531135528
2.320456533001561,0.35216117216117215,0.2756043956043956,1.6931135531135528
2.325236769996991,0.35216117216117215,0.2756043956043956,1.6931135531135528
2.330130313996051,0.36747252747252745,0.29655677655677654,1.2273260073260073
2.3302553229950718,0.36747252747252745,0.29655677655677654,1.2273260073260073
2.33495403300185,0.36747252747252745,0.29655677655677654,1.2273260073260073
2.335185823001666,0.4166300366300366,0.3424908424908425,2.5561904761904763
2.340000391996,1.2224908424908425,0.6076190476190476,3.1895970695970695
2.3400960529979784,1.2224908424908425,0.6076190476190476,3.1895970695970695
2.344808132002072,1.2224908424908425,0.6076190476190476,3.1895970695970695
2.3449199850001605,0.0136996336996337,0.05399267399267399,0.9638095238095238
2.349687071997323,0.0136996336996337,0.05399267399267399,0.9638095238095238
2.349869341000158,0.0136996336996337,0.05399267399267399,0.9638095238095238
2.354557335995196,0.0136996336996337,0.05399267399267399,0.9638095238095238
2.3548170950016356,0.0136996336996337,0.05399267399267399,0.9638095238095238
2.3595317840008647,0.0136996336996337,0.05399267399267399,0.9638095238095238
2.3597636589984177,0.0136996336996337,0.05399267399267399,0.9638095238095238
2.3645091239959584,0.0136996336996337,0.05399267399267399,0.9638095238095238
2.364668272995914,0.10476190476190475,0.1104029304029304,1.0218315018315018
2.3694562890013913,0.10476190476190475,0.1104029304029304,1.0218315018315018
2.369560653998633,0.3167032967032967,0.35135531135531134,1.7277655677655677
2.37430048299575,0.3167032967032967,0.35135531135531134,1.7277655677655677
2.3745323679977446,1.1958974358974357,0.8751648351648351,2.285421245421245
2.378716788996826,1.1958974358974357,0.8751648351648351,2.285421245421245
2.381441869001719,1.1958974358974357,0.8751648351648351,2.285421245421245
2.385030163997726,0.1241025641025641,0.2917216117216117,0.963003663003663
2.385265420001815,0.1241025641025641,0.2917216117216117,0.963003663003663
2.3900241969968192,0.1241025641025641,0.2917216117216117,0.963003663003663
2.3902828310019686,0.24739926739926738,0.3287912087912088,0.9863736263736262
2.3950480700004846,0.24739926739926738,0.3287912087912088,0.9863736263736262
2.3952557730008266,0.24739926739926738,0.3287912087912088,0.9863736263736262
2.399954679000075,0.9621978021978022,0.6720879120879121,1.2563369963369961
2.4001919599977555,0.9621978021978022,0.6720879120879121,1.2563369963369961
2.4049714249995304,0.9621978021978022,0.6720879120879121,1.2563369963369961
2.405093223998847,0.9621978021978022,0.6720879120879121,1.2563369963369961
2.4101164570020046,0.9621978021978022,0.6720879120879121,1.2563369963369961
2.413477456997498,0.9621978021978022,0.6720879120879121,1.2563369963369961
2.414972842001589,0.9621978021978022,0.6720879120879121,1.2563369963369961
2.4190533770015463,0.9621978021978022,0.6720879120879121,1.2563369963369961
2.422501866996754,0.9621978021978022,0.6720879120879121,1.2563369963369961
2.4227539470011834,0.9621978021978022,0.6720879120879121,1.2563369963369961
2.4274232460011262,0.9621978021978022,0.6720879120879121,1.2563369963369961
2.4276153899991186,0.9621978021978022,0.6720879120879121,1.2563369963369961
2.432279392996861,0.9621978021978022,0.6720879120879121,1.2563369963369961
2.4325162899986026,0.9621978021978022,0.6720879120879121,1.2563369963369961
2.437910282998928,0.9621978021978022,0.6720879120879121,1.2563369963369961
2.439442859002156,0.9621978021978022,0.6720879120879121,1.2563369963369961
2.443864433997078,0.9621978021978022,0.6720879120879121,1.2563369963369961
2.444856781999988,0.9621978021978022,0.6720879120879121,1.2563369963369961
2.445784823001304,0.9621978021978022,0.6720879120879121,1.2563369963369961
2.4473545479995664,0.9621978021978022,0.6720879120879121,1.2563369963369961
2.4519982150013675,0.9621978021978022,0.6720879120879121,1.2563369963369961
2.4521415650015115,0.9621978021978022,0.6720879120879121,1.2563369963369961
2.457581800998014,0.9831501831501831,0.9025641025641026,3.112234432234432
2.45936854500178,1.1757509157509156,0.8243956043956043,1.058901098901099
2.462434798995673,1.1757509157509156,0.8243956043956043,1.058901098901099
2.464055758995528,1.1757509157509156,0.8243956043956043,1.058901098901099
2.467758214996138,1.1757509157509156,0.8243956043956043,1.058901098901099
2.4731877719968907,1.1757509157509156,0.8243956043956043,1.058901098901099
2.474834180000471,1.1757509157509156,0.8243956043956043,1.058901098901099
2.47870094999962,1.1757509157509156,0.8243956043956043,1.058901098901099
2.483012194999901,1.1757509157509156,0.8243956043956043,1.058901098901099
2.4857705120011815,0.10476190476190475,0.27238095238095233,0.8727472527472527
2.49031764499523,0.10476190476190475,0.27238095238095233,0.8727472527472527
2.4906982789980248,0.10476190476190475,0.27238095238095233,0.8727472527472527
2.495304543997918,1.224102564102564,0.8058608058608058,2.320879120879121
2.4955207550010527,1.224102564102564,0.8058608058608058,2.320879120879121
2.500246965995757,1.224102564102564,0.8058608058608058,2.320879120879121
2.5005081919953227,0.6092307692307692,0.6479120879120879,0.8606593406593407
2.505682520000846,0.6092307692307692,0.6479120879120879,0.8606593406593407
2.509330285996839,0.6092307692307692,0.6479120879120879,0.8606593406593407
2.509455268002057,0.6092307692307692,0.6479120879120879,0.8606593406593407
2.514752700997633,0.6092307692307692,0.6479120879120879,0.8606593406593407
2.517097971998737,0.6092307692307692,0.6479120879120879,0.8606593406593407
2.5172827639980824,0.6092307692307692,0.6479120879120879,0.8606593406593407
2.5227362549994723,0.6092307692307692,0.6479120879120879,0.8606593406593407
2.524342684999283,0.6092307692307692,0.6479120879120879,0.8606593406593407
2.5298175339994486,0.6092307692307692,0.6479120879120879,0.8606593406593407
2.5307184039993444,0.6092307692307692,0.6479120879120879,0.8606593406593407
2.5316846779969637,0.6092307692307692,0.6479120879120879,0.8606593406593407
2.532586278000963,1.3562637362637362,1.0387545787545787,2.589230769230769
2.5349723959952826,1.0484249084249082,0.9799267399267398,3.10014652014652
2.5352536700011115,1.0484249084249082,0.9799267399267398,3.10014652014652
2.5397854979964904,1.0484249084249082,0.9799267399267398,3.10014652014652
2.5406361919958727,1.0484249084249082,0.9799267399267398,3.10014652014652
2.54235248099576,1.0484249084249082,0.9799267399267398,3.10014652014652
2.5462073749949923,1.0484249084249082,0.9799267399267398,3.10014652014652
2.550472634000471,1.0484249084249082,0.9799267399267398,3.10014652014652
2.552567252998415,0.9847619047619047,0.6551648351648351,1.801098901098901
2.5533645629984676,0.9847619047619047,0.6551648351648351,1.801098901098901
2.5554723690001993,0.9847619047619047,0.6551648351648351,1.801098901098901
2.55631631599681,0.9847619047619047,0.6551648351648351,1.801098901098901
2.557817052998871,0.9847619047619047,0.6551648351648351,1.801098901098901
2.5625865049951244,0.9847619047619047,0.6551648351648351,1.801098901098901
2.562725709998631,0.9847619047619047,0.6551648351648351,1.801098901098901
2.567411322997941,0.9847619047619047,0.6551648351648351,1.801098901098901
2.5676546579998103,0.9847619047619047,0.6551648351648351,1.801098901098901
2.5723747849988285,0.9847619047619047,0.6551648351648351,1.801098901098901
2.5725111630017636,0.0,0.11926739926739927,0.6938461538461538
2.577176441998745,0.4553113553113553,0.614065934065934,2.726227106227106
2.5775017439955263,0.4553113553113553,0.614065934065934,2.726227106227106
2.5822363589977613,0.4553113553113553,0.614065934065934,2.726227106227106
2.5824961539983633,0.024175824175824173,0.2482051282051282,1.0411721611721612
2.587607631998253,0.024175824175824173,0.2482051282051282,1.0411721611721612
2.5914769349983544,0.024175824175824173,0.2482051282051282,1.0411721611721612
2.595983706996776,0.024175824175824173,0.2482051282051282,1.0411721611721612
2.5968708290020004,0.024175824175824173,0.2482051282051282,1.0411721611721612
2.599078009996447,0.024175824175824173,0.2482051282051282,1.0411721611721612
2.599874072999228,0.024175824175824173,0.2482051282051282,1.0411721611721612
2.60218414299743,0.024175824175824173,0.2482051282051282,1.0411721611721612
2.6023414629962645,0.024175824175824173,0.2482051282051282,1.0411721611721612
2.6074954879950383,0.024175824175824173,0.2482051282051282,1.0411721611721612
2.6111934340005973,0.9194871794871795,0.44080586080586076,1.8897435897435895
2.6159282669977983,0.9194871794871795,0.44080586080586076,1.8897435897435895
2.616057232997264,0.9194871794871795,0.44080586080586076,1.8897435897435895
2.620728975001839,0.9194871794871795,0.44080586080586076,1.8897435897435895
2.620909951001522,0.9194871794871795,0.44080586080586076,1.8897435897435895
2.6256057799982955,0.9194871794871795,0.44080586080586076,1.8897435897435895
2.6258307749958476,0.9194871794871795,0.44080586080586076,1.8897435897435895
2.6312821690007695,0.9194871794871795,0.44080586080586076,1.8897435897435895
2.6321991509976215,0.0,0.13457875457875457,1.008937728937729
2.6337892149967956,1.1709157509157508,0.9662271062271062,3.0695238095238095
2.637891138001578,1.1709157509157508,0.9662271062271062,3.0695238095238095
2.6406213289956213,1.1709157509157508,0.9662271062271062,3.0695238095238095
2.6446159679981065,1.1709157509157508,0.9662271062271062,3.0695238095238095
2.6480295000001206,1.1709157509157508,0.9662271062271062,3.0695238095238095
2.648302353998588,0.0,0.13054945054945052,1.0645421245421245
2.652989190995868,0.0,0.13054945054945052,1.0645421245421245
2.6531690569972852,0.0,0.13054945054945052,1.0645421245421245
2.6578886269999202,0.0,0.13054945054945052,1.0645421245421245
2.6581130100021255,0.0,0.13054945054945052,1.0645421245421245
2.6627951720001874,0.0,0.13054945054945052,1.0645421245421245
2.6630657549976604,0.0,0.13054945054945052,1.0645421245421245
2.667874908998783,0.0,0.13054945054945052,1.0645421245421245
2.6729260939973756,0.0,0.13054945054945052,1.0645421245421245
2.6772479369974462,0.0,0.1087912087912088,0.6720879120879121
2.6782026259970735,0.0,0.1087912087912088,0.6720879120879121
2.6798102089960594,0.7131868131868132,0.6865934065934066,0.6745054945054945
2.686943018998136,0.7131868131868132,0.6865934065934066,0.6745054945054945
2.6939065990009112,0.7131868131868132,0.6865934065934066,0.6745054945054945
2.699729171996296,0.7131868131868132,0.6865934065934066,0.6745054945054945
2.7085695259956992,0.7131868131868132,0.6865934065934066,0.6745054945054945
2.7161152729968308,1.411062271062271,0.6535531135531135,3.095311355311355
2.7216018159961095,1.411062271062271,0.6535531135531135,3.095311355311355
2.7218510460006655,1.411062271062271,0.6535531135531135,3.095311355311355
2.7309583440001006,1.411062271062271,0.6535531135531135,3.095311355311355
2.7384100560011575,1.411062271062271,0.6535531135531135,3.095311355311355
2.7415831399994204,0.776043956043956,0.32395604395604394,2.277362637362637
2.7432376029973966,0.776043956043956,0.32395604395604394,2.277362637362637
2.7463362560010864,0.776043956043956,0.32395604395604394,2.277362637362637
2.749411181001051,0.776043956043956,0.32395604395604394,2.277362637362637
2.751924288000737,0.776043956043956,0.32395604395604394,2.277362637362637
2.7574801439986913,0.776043956043956,0.32395604395604394,2.277362637362637
2.7584308000004967,0.776043956043956,0.32395604395604394,2.277362637362637
2.759274315001676,0.776043956043956,0.32395604395604394,2.277362637362637
2.7612222359966836,0.776043956043956,0.32395604395604394,2.277362637362637
2.7628732779994607,0.776043956043956,0.32395604395604394,2.277362637362637
2.7667128489993047,0.0,0.21032967032967032,1.1975091575091574
2.7739791380008683,0.0,0.2095238095238095,1.22007326007326
2.779256986999826,0.0,0.0846153846153846,0.6350183150183151
2.7808757160019013,0.0,0.0846153846153846,0.6350183150183151
2.786864304995106,0.0,0.0846153846153846,0.6350183150183151
2.795043161997455,0.0,0.08783882783882783,0.9823443223443222
2.799438743000792,0.39890109890109887,0.23208791208791207,2.6206593406593406
2.7997355429979507,0.834065934065934,0.7921611721611721,0.6841758241758242
2.8053526829971815,0.834065934065934,0.7921611721611721,0.6841758241758242
2.8081726509990403,0.23934065934065935,0.3852014652014652,1.0943589743589743
2.812521811996703,0.4126007326007326,0.3690842490842491,1.7954578754578752
2.81281220800156,0.4126007326007326,0.3690842490842491,1.7954578754578752
2.8214850389995263,0.4126007326007326,0.3690842490842491,1.7954578754578752
2.8290736509952694,0.4126007326007326,0.3690842490842491,1.7954578754578752
2.8363926949969027,0.4126007326007326,0.3690842490842491,1.7954578754578752
2.8407274359997245,0.4126007326007326,0.3690842490842491,1.7954578754578752
2.841745298996102,0.4126007326007326,0.3690842490842491,1.7954578754578752
2.84196609799983,0.4126007326007326,0.3690842490842491,1.7954578754578752
2.8495106479967944,0.4126007326007326,0.3690842490842491,1.7954578754578752
2.8565259789975244,0.0,0.14989010989010987,1.1217582417582417
2.862556075997418,0.0,0.14989010989010987,1.1217582417582417
2.867358540999703,0.2063003663003663,0.3908424908424908,1.2063736263736262
2.8783008309983416,0.2063003663003663,0.3908424908424908,1.2063736263736262
2.884284902997024,0.2063003663003663,0.3908424908424908,1.2063736263736262
2.8934617699997034,0.43999999999999995,0.26915750915750913,1.1886446886446886
2.8990971530001843,0.43999999999999995,0.26915750915750913,1.1886446886446886
2.900004999995872,0.763956043956044,0.3223443223443223,2.301538461538461
2.9018323740019696,0.763956043956044,0.3223443223443223,2.301538461538461
2.9051445239965688,0.763956043956044,0.3223443223443223,2.301538461538461
2.9053898049969575,0.763956043956044,0.3223443223443223,2.301538461538461
2.911434397996345,0.763956043956044,0.3223443223443223,2.301538461538461
2.916899466996256,1.1556043956043955,0.9565567765567766,3.1154578754578752
2.9178458979949937,1.1556043956043955,0.9565567765567766,3.1154578754578752
2.9213131130018155,1.1556043956043955,0.9565567765567766,3.1154578754578752
2.9290675899974303,1.1556043956043955,0.9565567765567766,3.1154578754578752
2.93455800099764,1.1556043956043955,0.9565567765567766,3.1154578754578752
2.937301270001626,1.1556043956043955,0.9565567765567766,3.1154578754578752
2.9410961579997092,1.1556043956043955,0.9565567765567766,3.1154578754578752
2.9450489959999686,1.1556043956043955,0.9565567765567766,3.1154578754578752
2.9481514139988576,1.1556043956043955,0.9565567765567766,3.1154578754578752
2.9504704869978013,1.1556043956043955,0.9565567765567766,3.1154578754578752
2.9506689449990517,1.1556043956043955,0.9565567765567766,3.1154578754578752
2.9584421629988356,1.1556043956043955,0.9565567765567766,3.1154578754578752
2.9630371820021537,1.1556043956043955,0.9565567765567766,3.1154578754578752
2.963260940996406,0.0,0.17648351648351646,1.2192673992673992
2.9683729800017318,0.0,0.17648351648351646,1.2192673992673992
2.9752424030011753,0.4835164835164835,0.26915750915750913,1.4610256410256408
2.979854086996056,0.763956043956044,0.5415384615384615,1.5641758241758241
2.980139014995075,0.763956043956044,0.5415384615384615,1.5641758241758241
2.9852637730000424,0.763956043956044,0.5415384615384615,1.5641758241758241
2.99177442099608,0.24901098901098898,0.18534798534798536,1.2136263736263737
2.9955380569954286,0.0,0.21677655677655677,1.2515018315018314
3.000021720996301,0.0,0.21677655677655677,1.2515018315018314
3.0009229150018655,0.0,0.21677655677655677,1.2515018315018314
3.003946217999328,0.0,0.21677655677655677,1.2515018315018314
3.0059373839976615,0.0,0.21677655677655677,1.2515018315018314
3.0070576689977315,0.0,0.21677655677655677,1.2515018315018314
3.007311930996366,0.0,0.21677655677655677,1.2515018315018314
3.0128028839972103,0.0,0.21677655677655677,1.2515018315018314
3.014455434997217,0.0,0.21677655677655677,1.2515018315018314
3.018400726999971,0.0,0.21677655677655677,1.2515018315018314
3.025228744998458,0.0,0.21677655677655677,1.2515018315018314
3.029158617995563,0.0,0.21677655677655677,1.2515018315018314
3.0330027469972265,0.0,0.21677655677655677,1.2515018315018314
3.0404224099984276,0.0,0.21677655677655677,1.2515018315018314
3.0459453360017505,0.0,0.21677655677655677,1.2515018315018314
3.046108075999655,0.0,0.21677655677655677,1.2515018315018314
3.05182251399674,0.0,0.21677655677655677,1.2515018315018314
3.052106092000031,0.0,0.21677655677655677,1.2515018315018314
3.0621855089993915,0.0,0.21677655677655677,1.2515018315018314
3.072311648997129,0.27238095238095233,0.09106227106227105,2.033992673992674
3.077567895001266,0.27238095238095233,0.09106227106227105,2.033992673992674
3.0822060389982653,0.27238095238095233,0.09106227106227105,2.033992673992674
3.0914676489992416,0.27238095238095233,0.09106227106227105,2.033992673992674
3.0973325180020765,0.0,0.25545787545787546,1.3264468864468864
3.1073705879971385,0.27318681318681315,0.09106227106227105,1.979194139194139
3.115521922998596,0.27318681318681315,0.09106227106227105,1.979194139194139
3.124344989999372,1.2047619047619047,1.0452014652014652,2.7544322344322345
3.1293129510013387,1.2047619047619047,1.0452014652014652,2.7544322344322345
3.1346376619985676,1.2047619047619047,1.0452014652014652,2.7544322344322345
3.1349393220007187,1.2047619047619047,1.0452014652014652,2.7544322344322345
3.144455959001789,0.8703296703296703,0.39567765567765567,2.3345787545787546
3.1492118669993943,0.06769230769230769,0.26915750915750913,1.0443956043956042
3.149352551001357,0.06769230769230769,0.26915750915750913,1.0443956043956042
3.157514259997697,0.06769230769230769,0.26915750915750913,1.0443956043956042
3.164788538000721,1.0290842490842491,0.9904029304029303,3.1356043956043953
3.1723237639962463,1.0290842490842491,0.9904029304029303,3.1356043956043953
3.1791506859954097,1.0290842490842491,0.9904029304029303,3.1356043956043953
3.1846994349980378,1.0290842490842491,0.9904029304029303,3.1356043956043953
3.1849657209968427,1.0290842490842491,0.9904029304029303,3.1356043956043953
3.1926354009992792,1.2466666666666666,0.6882051282051282,3.2717948717948717
3.196565735997865,1.2466666666666666,0.6882051282051282,3.2717948717948717
3.201121391997731,0.2772161172161172,0.224029304029304,1.6971428571428568
3.2013763380018645,0.2772161172161172,0.224029304029304,1.6971428571428568
3.210123343997111,0.2772161172161172,0.224029304029304,1.6971428571428568
3.21560578700155,0.2772161172161172,0.224029304029304,1.6971428571428568
3.2171365519971005,0.2772161172161172,0.224029304029304,1.6971428571428568
3.223752409001463,0.2772161172161172,0.224029304029304,1.6971428571428568
3.2269891429968993,0.14102564102564102,0.3038095238095238,0.9904029304029303
3.2286013389966683,0.14102564102564102,0.3038095238095238,0.9904029304029303
3.233052076000604,0.14102564102564102,0.3038095238095238,0.9904029304029303
3.2339698059950024,0.14102564102564102,0.3038095238095238,0.9904029304029303
3.2357156169964583,0.14102564102564102,0.3038095238095238,0.9904029304029303
3.2421975300021586,0.14102564102564102,0.3038095238095238,0.9904029304029303
3.246008559995971,0.14102564102564102,0.3038095238095238,0.9904029304029303
3.2507059599956847,0.14102564102564102,0.3038095238095238,0.9904029304029303
3.2509344479985884,0.14102564102564102,0.3038095238095238,0.9904029304029303
3.256877790001454,0.14102564102564102,0.3038095238095238,0.9904029304029303
3.26148173600086,1.095164835164835,0.8211721611721612,0.5012454212454212
3.261819890998595,1.095164835164835,0.8211721611721612,0.5012454212454212
3.2668533659962122,1.095164835164835,0.8211721611721612,0.5012454212454212
3.275825935998,1.095164835164835,0.8211721611721612,0.5012454212454212
3.2821517740012496,1.095164835164835,0.8211721611721612,0.5012454212454212
3.2874075649961014,1.095164835164835,0.8211721611721612,0.5012454212454212
3.2909689629959757,1.095164835164835,0.8211721611721612,0.5012454212454212
3.2958307180015254,1.095164835164835,0.8211721611721612,0.5012454212454212
3.3013248019997263,1.095164835164835,0.8211721611721612,0.5012454212454212
3.304754867000156,1.095164835164835,0.8211721611721612,0.5012454212454212
3.3049144399992656,1.095164835164835,0.8211721611721612,0.5012454212454212
3.3106347149951034,1.095164835164835,0.8211721611721612,0.5012454212454212
3.3107699989996036,1.095164835164835,0.8211721611721612,0.5012454212454212
3.3155070139982854,1.095164835164835,0.8211721611721612,0.5012454212454212
3.315755978997913,1.095164835164835,0.8211721611721612,0.5012454212454212
3.3237014369951794,1.095164835164835,0.8211721611721612,0.5012454212454212
3.330781336000655,1.0258608058608059,0.7671794871794871,0.43355311355311354
3.3368026339958305,1.0258608058608059,0.7671794871794871,0.43355311355311354
3.3399616359965876,1.0097435897435898,0.45369963369963373,2.701245421245421
3.340935736996471,0.9114285714285715,0.7728205128205128,0.26109890109890105
3.341820329995244,0.9114285714285715,0.7728205128205128,0.26109890109890105
3.3434325289999833,0.9114285714285715,0.7728205128205128,0.26109890109890105
3.3474998519959627,0.9114285714285715,0.7728205128205128,0.26109890109890105
3.350554871998611,0.9114285714285715,0.7728205128205128,0.26109890109890105
3.3557403230006457,0.9114285714285715,0.7728205128205128,0.26109890109890105
3.3577208380011143,0.9114285714285715,0.7728205128205128,0.26109890109890105
3.3592884539975785,0.9114285714285715,0.7728205128205128,0.26109890109890105
3.3631905000002007,0.9114285714285715,0.7728205128205128,0.26109890109890105
3.366219880001154,0.32476190476190475,0.4593406593406593,1.1886446886446886
3.3686643709952477,0.32476190476190475,0.4593406593406593,1.1886446886446886
3.3690879240020877,0.0,0.09589743589743589,0.8799999999999999
3.37488635200134,0.0,0.09589743589743589,0.8799999999999999
3.3801982759978273,0.0,0.09589743589743589,0.8799999999999999
3.382442338996043,0.0,0.09589743589743589,0.8799999999999999
3.383288981996884,0.0,0.09589743589743589,0.8799999999999999
3.3850502880013664,0.0,0.09589743589743589,0.8799999999999999
3.3896777299960377,0.0,0.09589743589743589,0.8799999999999999
3.395096344000194,0.0,0.09589743589743589,0.8799999999999999
3.3966187659971183,0.0,0.09589743589743589,0.8799999999999999
3.4010401939958683,0.0,0.09589743589743589,0.8799999999999999
3.402325861999998,0.0,0.09589743589743589,0.8799999999999999
3.402716229997168,0.0,0.09589743589743589,0.8799999999999999
3.4082656699974905,0.0,0.09589743589743589,0.8799999999999999
3.413597644001129,0.0,0.08542124542124542,0.9033699633699634
3.4158370309960446,0.0,0.08542124542124542,0.9033699633699634
3.4160579689996666,0.0,0.08542124542124542,0.9033699633699634
3.425456432996725,0.0,0.08542124542124542,0.9033699633699634
3.4323835690011038,0.0,0.12249084249084248,0.8574358974358974
3.436949780996656,0.0,0.12249084249084248,0.8574358974358974
3.4370877030014526,0.0,0.12249084249084248,0.8574358974358974
3.4423747649998404,0.0,0.12249084249084248,0.8574358974358974
3.445509418997972,0.0,0.12249084249084248,0.8574358974358974
3.4470304639980895,0.0,0.12249084249084248,0.8574358974358974
3.450753272001748,0.0,0.12249084249084248,0.8574358974358974
3.450848684995435,0.0,0.12249084249084248,0.8574358974358974
3.46109249300207,0.0,0.12249084249084248,0.8574358974358974
3.466696661002061,0.0,0.12249084249084248,0.8574358974358974
3.467668452001817,0.0,0.12249084249084248,0.8574358974358974
3.4695548309973674,0.0,0.12249084249084248,0.8574358974358974
3.4745994019976933,0.0,0.09025641025641025,0.6277655677655677
3.4754686640008003,0.0,0.09025641025641025,0.6277655677655677
3.4771135639966815,0.0,0.09025641025641025,0.6277655677655677
3.4801587409965578,0.0,0.09025641025641025,0.6277655677655677
3.482465207001951,0.0,0.09025641025641025,0.6277655677655677
3.483257040999888,0.0,0.09025641025641025,0.6277655677655677
3.4848061299999245,0.0,0.09025641025641025,0.6277655677655677
3.4923219089978375,0.0,0.09025641025641025,0.6277655677655677
3.4961859719987842,0.0,0.09025641025641025,0.6277655677655677
3.5001817000011215,0.0,0.09025641025641025,0.6277655677655677
3.506653869000729,0.0,0.09025641025641025,0.6277655677655677
3.510363649998908,0.2095238095238095,0.3884249084249084,1.2313553113553113
3.5105049740013783,0.2095238095238095,0.3884249084249084,1.2313553113553113
3.515283378001186,0.2095238095238095,0.3884249084249084,1.2313553113553113
3.5230878529982874,0.2095238095238095,0.3884249084249084,1.2313553113553113
3.527809466999315,0.2095238095238095,0.3884249084249084,1.2313553113553113
3.5279592119986773,1.5553113553113551,0.6793406593406592,2.928498168498168
3.532713827000407,1.5553113553113551,0.6793406593406592,2.928498168498168
3.5329209769988665,1.5553113553113551,0.6793406593406592,2.928498168498168
3.541154047998134,1.5553113553113551,0.6793406593406592,2.928498168498168
3.5457565670003532,1.5553113553113551,0.6793406593406592,2.928498168498168
3.5460307620014646,1.5553113553113551,0.6793406593406592,2.928498168498168
3.550457375997212,1.5553113553113551,0.6793406593406592,2.928498168498168
3.5531676699974923,0.0,0.15472527472527473,0.6906227106227106
3.5574890220013913,0.0,0.15472527472527473,0.6906227106227106
3.5577625239966437,0.0,0.15472527472527473,0.6906227106227106
3.5632219959952636,0.0,0.15472527472527473,0.6906227106227106
3.5647615259949816,0.07494505494505493,0.16278388278388278,1.0806593406593406
3.5696255689981626,0.07494505494505493,0.16278388278388278,1.0806593406593406
3.5698675390012795,0.07494505494505493,0.16278388278388278,1.0806593406593406
3.577950453996891,0.0,0.12007326007326008,0.7091575091575092
3.5849085549998563,0.0,0.12007326007326008,0.7091575091575092
3.5901635970003554,0.0,0.12007326007326008,0.7091575091575092
3.593288942996878,1.4674725274725273,0.6189010989010989,2.9792673992673993
3.5942033489991445,1.4674725274725273,0.6189010989010989,2.9792673992673993
3.5952098990019294,1.4674725274725273,0.6189010989010989,2.9792673992673993
3.596107457000471,1.4674725274725273,0.6189010989010989,2.9792673992673993
3.5976610209982027,1.4674725274725273,0.6189010989010989,2.9792673992673993
3.6026484969988815,1.4674725274725273,0.6189010989010989,2.9792673992673993
3.609728764000465,1.4674725274725273,0.6189010989010989,2.9792673992673993
3.616358646999288,1.4674725274725273,0.6189010989010989,2.9792673992673993
3.6214451499981806,1.4674725274725273,0.6189010989010989,2.9792673992673993
3.625195372995222,1.4674725274725273,0.6189010989010989,2.9792673992673993
3.6289496640019934,1.4674725274725273,0.6189010989010989,2.9792673992673993
3.634197362996929,0.0,0.05882783882783882,0.90014652014652
3.641248973995971,0.0,0.05882783882783882,0.90014652014652
3.6474716189986793,0.0,0.05882783882783882,0.90014652014652
3.6541613529989263,0.0,0.05882783882783882,0.90014652014652
3.6593949390007765,0.0,0.05882783882783882,0.90014652014652
3.6609456910009612,0.5753846153846153,0.26190476190476186,1.9775824175824175
3.6668480099979206,0.5753846153846153,0.26190476190476186,1.9775824175824175
3.674063763995946,0.5753846153846153,0.26190476190476186,1.9775824175824175
3.6787637839952367,1.2837362637362637,1.0178021978021978,2.8463003663003663
3.6847686679975595,1.2837362637362637,1.0178021978021978,2.8463003663003663
3.691451751998102,0.006446886446886447,0.19824175824175824,1.1499633699633698
3.6953162209974835,0.0,0.23047619047619047,1.1539926739926738
3.7000079159988672,0.0,0.23047619047619047,1.1539926739926738
3.7001709239993943,0.809084249084249,0.7405860805860806,0.48754578754578753
3.707773238995287,0.0,0.16117216117216115,0.9928205128205128
3.71264721499756,0.0,0.16117216117216115,0.9928205128205128
3.718349736998789,0.0,0.16117216117216115,0.9928205128205128
3.7184676229953766,0.0,0.16117216117216115,0.9928205128205128
3.7299995689973002,0.0,0.16117216117216115,0.9928205128205128
3.741150595000363,0.0,0.16117216117216115,0.9928205128205128
3.7485258969973074,0.8018315018315018,0.3473260073260073,2.2725274725274724
3.7575401209978736,0.8018315018315018,0.3473260073260073,2.2725274725274724
3.764769223998883,0.8018315018315018,0.3473260073260073,2.2725274725274724
3.772282471996732,0.0,0.07575091575091575,0.8767765567765567
3.777114669996081,0.0,0.07575091575091575,0.8767765567765567
3.7834960440013674,0.9452747252747251,0.8638827838827838,0.35619047619047617
3.790130412999133,0.9452747252747251,0.8638827838827838,0.35619047619047617
3.7954338999988977,0.9452747252747251,0.8638827838827838,0.35619047619047617
3.7971294870003476,0.9452747252747251,0.8638827838827838,0.35619047619047617
3.8032538939951337,1.2144322344322345,0.5971428571428571,3.017142857142857
3.809226541001408,1.2144322344322345,0.5971428571428571,3.017142857142857
3.8149601199984318,0.0,0.1652014652014652,1.2660073260073261
3.8256605110000237,0.8791941391941391,0.8187545787545787,2.904322344322344
3.831896659998165,1.0315018315018314,0.7752380952380952,0.3706959706959707
3.8383732459988096,1.0315018315018314,0.7752380952380952,0.3706959706959707
3.8421024919953197,0.6124542124542125,0.6519413919413919,1.0024908424908423
3.8459704499982763,0.6124542124542125,0.6519413919413919,1.0024908424908423
3.8460665339953266,0.6124542124542125,0.6519413919413919,1.0024908424908423
3.851515490001475,0.6124542124542125,0.6519413919413919,1.0024908424908423
3.854572673997609,0.6124542124542125,0.6519413919413919,1.0024908424908423
3.8563868580022245,0.36747252747252745,0.18776556776556774,1.7656410256410255
3.8580077789956704,0.36747252747252745,0.18776556776556774,1.7656410256410255
3.8618041959998664,0.36747252747252745,0.18776556776556774,1.7656410256410255
3.867246982001234,0.36747252747252745,0.18776556776556774,1.7656410256410255
3.8704644609970273,0.36747252747252745,0.18776556776556774,1.7656410256410255
3.872238973999629,0.36747252747252745,0.18776556776556774,1.7656410256410255
3.874253376001434,0.36747252747252745,0.18776556776556774,1.7656410256410255
3.8759547489971737,0.36747252747252745,0.18776556776556774,1.7656410256410255
3.879126082996663,1.02021978021978,0.6753113553113552,1.3675457875457875
3.8815743459999794,0.9065934065934066,0.630989010989011,1.1628571428571428
3.8817767840009765,0.9065934065934066,0.630989010989011,1.1628571428571428
3.8889433730000746,0.9065934065934066,0.630989010989011,1.1628571428571428
3.893683506998059,0.9065934065934066,0.630989010989011,1.1628571428571428
3.902146355001605,0.32556776556776557,0.1676190476190476,2.1967765567765567
3.909975067996129,0.7518681318681318,0.6680586080586081,0.61003663003663
3.91710892500123,0.7518681318681318,0.6680586080586081,0.61003663003663
3.924636597999779,1.0766300366300365,0.5649084249084249,3.208131868131868
3.9291314980000607,0.19179487179487179,0.3457142857142857,1.162051282051282
3.929452381002193,0.19179487179487179,0.3457142857142857,1.162051282051282
3.93978563699784,0.19179487179487179,0.3457142857142857,1.162051282051282
3.9464421960001346,0.4174358974358974,0.2232234432234432,1.8405860805860805
3.9502200720016845,0.0,0.16278388278388278,1.037948717948718
3.959955391001131,0.0,0.16278388278388278,1.037948717948718
3.965335202999995,0.0,0.16278388278388278,1.037948717948718
3.966459703995497,0.0,0.16278388278388278,1.037948717948718
3.9667187099985313,0.0,0.16278388278388278,1.037948717948718
3.976005587996042,0.0,0.16278388278388278,1.037948717948718
3.982624586999009,0.0,0.16278388278388278,1.037948717948718
3.9896177650007303,0.0,0.16278388278388278,1.037948717948718
3.99562409799546,0.0,0.16278388278388278,1.037948717948718
3.9997048349978286,0.0,0.16278388278388278,1.037948717948718
4.002814323997882,0.0,0.16278388278388278,1.037948717948718
4.0046707410001545,0.0,0.16278388278388278,1.037948717948718
4.0091832670004806,0.0,0.16278388278388278,1.037948717948718
4.015505329000007,0.0,0.16278388278388278,1.037948717948718
4.020181196996418,0.0,0.16278388278388278,1.037948717948718
4.027451666996058,0.0,0.16278388278388278,1.037948717948718
4.03203147000022,0.0,0.0838095238095238,0.9565567765567766
4.032849051996891,0.0,0.0838095238095238,0.9565567765567766
4.035848118997819,0.7921611721611721,0.8147252747252747,3.0066666666666664
4.040667688001122,0.7921611721611721,0.8147252747252747,3.0066666666666664
4.042779796000104,0.7921611721611721,0.8147252747252747,3.0066666666666664
4.043126853997819,0.7921611721611721,0.8147252747252747,3.0066666666666664
4.047878177996608,0.7921611721611721,0.8147252747252747,3.0066666666666664
4.048088914998516,0.7921611721611721,0.8147252747252747,3.0066666666666664
4.058226827000908,0.7921611721611721,0.8147252747252747,3.0066666666666664
4.063886860996718,1.0983882783882783,0.9082051282051282,2.9704029304029302
4.064059716001793,1.0983882783882783,0.9082051282051282,2.9704029304029302
4.070538116997341,1.0983882783882783,0.9082051282051282,2.9704029304029302
4.074568343996361,1.0983882783882783,0.9082051282051282,2.9704029304029302
4.0778177800020785,1.0983882783882783,0.9082051282051282,2.9704029304029302
4.078799901995808,1.0355311355311354,0.46095238095238095,2.7826373626373626
4.079105004995654,1.0355311355311354,0.46095238095238095,2.7826373626373626
4.084124234999763,1.0355311355311354,0.46095238095238095,2.7826373626373626
4.0910062350012595,1.0355311355311354,0.46095238095238095,2.7826373626373626
4.095047196999076,1.0355311355311354,0.46095238095238095,2.7826373626373626
4.098250705996179,0.7147985347985348,0.3465201465201465,2.3732600732600733
4.099222270997416,1.0693772893772893,0.7268864468864469,1.2635897435897436
4.100104557001032,1.0693772893772893,0.7268864468864469,1.2635897435897436
4.1017740559982485,0.36747252747252745,0.5117216117216117,1.1225641025641024
4.109126092000224,0.0,0.13538461538461538,0.9065934065934066
4.113170327000262,1.5166300366300365,0.6914285714285714,2.967179487179487
4.115593627997441,1.5166300366300365,0.6914285714285714,2.967179487179487
4.1158574809960555,1.5166300366300365,0.6914285714285714,2.967179487179487
4.124165016997722,1.5166300366300365,0.6914285714285714,2.967179487179487
4.129436784998688,1.0677655677655677,0.7865201465201466,0.43435897435897436
4.131088841997553,1.0677655677655677,0.7865201465201466,0.43435897435897436
4.13760838899907,1.0677655677655677,0.7865201465201466,0.43435897435897436
4.142787461998523,1.153186813186813,0.8284249084249083,0.5818315018315018
4.144135914997605,1.153186813186813,0.8284249084249083,0.5818315018315018
4.149236514997028,1.153186813186813,0.8284249084249083,0.5818315018315018
4.158030491998943,1.153186813186813,0.8284249084249083,0.5818315018315018
4.16551342800085,1.153186813186813,0.8284249084249083,0.5818315018315018
4.170861863000027,0.34813186813186814,0.4472527472527472,1.2684249084249084
4.1711623430019245,0.34813186813186814,0.4472527472527472,1.2684249084249084
4.175783694998245,0.34813186813186814,0.4472527472527472,1.2684249084249084
4.1760946119975415,0.34813186813186814,0.4472527472527472,1.2684249084249084
4.181288688996574,0.34813186813186814,0.4472527472527472,1.2684249084249084
4.185034811998776,0.24256410256410255,0.38681318681318677,1.075018315018315
4.19351930799894,0.24256410256410255,0.38681318681318677,1.075018315018315
4.198106862000714,0.24256410256410255,0.38681318681318677,1.075018315018315
4.1984079079993535,0.8437362637362636,0.3191208791208791,2.2958974358974356
4.2067504480000935,0.8437362637362636,0.3191208791208791,2.2958974358974356
4.213701789994957,0.8437362637362636,0.3191208791208791,2.2958974358974356
4.219082413997967,0.8437362637362636,0.3191208791208791,2.2958974358974356
4.219520785998611,0.8437362637362636,0.3191208791208791,2.2958974358974356
4.227981190000719,0.8437362637362636,0.3191208791208791,2.2958974358974356
4.232977640000172,0.0,0.19018315018315018,0.9533333333333331
4.239600073000474,0.0,0.19018315018315018,0.9533333333333331
4.242784627997025,0.6632234432234432,0.28930402930402926,2.2008058608058607
4.243699368998932,0.6632234432234432,0.28930402930402926,2.2008058608058607
4.245340121000481,0.6632234432234432,0.28930402930402926,2.2008058608058607
4.249359944995376,0.6632234432234432,0.28930402930402926,2.2008058608058607
4.255914600995311,0.0,0.06849816849816849,0.9162637362637363
4.260892917001911,0.8429304029304028,0.5624908424908425,1.4835897435897436
4.266451527000754,0.8429304029304028,0.5624908424908425,1.4835897435897436
4.2783513399990625,0.8429304029304028,0.5624908424908425,1.4835897435897436
4.288900849998754,0.8429304029304028,0.5624908424908425,1.4835897435897436
4.294034009995812,0.04915750915750916,0.2498168498168498,1.2684249084249084
4.297846228997514,0.04915750915750916,0.2498168498168498,1.2684249084249084
4.303811088000657,0.04915750915750916,0.2498168498168498,1.2684249084249084
4.312627817998873,0.04915750915750916,0.2498168498168498,1.2684249084249084
4.319415919999301,0.04915750915750916,0.2498168498168498,1.2684249084249084
4.324276781997469,0.04915750915750916,0.2498168498168498,1.2684249084249084
4.328067886999634,0.4416117216117216,0.25787545787545785,1.4134798534798534
4.333655417998671,1.0758241758241758,0.5093040293040293,2.008205128205128
4.334711636998691,1.0758241758241758,0.5093040293040293,2.008205128205128
4.336822504999873,1.0758241758241758,0.5093040293040293,2.008205128205128
4.337159688999236,1.0758241758241758,0.5093040293040293,2.008205128205128
4.344892417000665,1.0758241758241758,0.5093040293040293,2.008205128205128
4.349562914998387,0.8663003663003663,0.7365567765567765,0.40695970695970696
4.357848751002166,0.0,0.0016117216117216117,0.9605860805860806
4.362349564995384,0.0,0.0016117216117216117,0.9605860805860806
4.363931569001579,0.47062271062271055,0.5995604395604395,1.1604395604395605
4.368023363000248,0.47062271062271055,0.5995604395604395,1.1604395604395605
4.373259198997403,0.0,0.17084249084249084,1.3046886446886445
4.373568317001627,0.4456410256410256,0.4287179487179487,1.1362637362637362
4.378993558995717,0.4456410256410256,0.4287179487179487,1.1362637362637362
4.3806135170016205,0.4456410256410256,0.4287179487179487,1.1362637362637362
4.38646477599832,0.4456410256410256,0.4287179487179487,1.1362637362637362
4.395075178996194,0.4456410256410256,0.4287179487179487,1.1362637362637362
4.399565916995925,0.4456410256410256,0.4287179487179487,1.1362637362637362
4.400595982995583,1.021025641025641,0.8252014652014652,0.3972893772893773
4.401128541998332,1.021025641025641,0.8252014652014652,0.3972893772893773
4.406485574996623,1.021025641025641,0.8252014652014652,0.3972893772893773
4.407390485001088,1.021025641025641,0.8252014652014652,0.3972893772893773
4.408996245001617,1.021025641025641,0.8252014652014652,0.3972893772893773
4.412813959999767,1.021025641025641,0.8252014652014652,0.3972893772893773
4.417299404994992,0.06124542124542124,0.27399267399267396,0.6938461538461538
4.420775088998198,1.174139194139194,0.8993406593406592,0.6334065934065934
4.430195003995323,1.174139194139194,0.8993406593406592,0.6334065934065934
4.439674226996431,0.008864468864468863,0.0547985347985348,0.9791208791208791
4.446994249999989,0.008864468864468863,0.0547985347985348,0.9791208791208791
4.453600089000247,0.008864468864468863,0.0547985347985348,0.9791208791208791
4.457698518999678,0.008864468864468863,0.0547985347985348,0.9791208791208791
4.459294718995807,0.008864468864468863,0.0547985347985348,0.9791208791208791
4.463167716996395,0.008864468864468863,0.0547985347985348,0.9791208791208791
4.46921948200179,0.008864468864468863,0.0547985347985348,0.9791208791208791
4.474205264996272,0.008864468864468863,0.0547985347985348,0.9791208791208791
4.477280875995348,0.008864468864468863,0.0547985347985348,0.9791208791208791
4.479718989001412,1.1596336996336996,0.6035897435897435,3.3
4.479868035996333,1.1596336996336996,0.6035897435897435,3.3
4.48647471699951,1.1596336996336996,0.6035897435897435,3.3
4.490858858996944,1.1596336996336996,0.6035897435897435,3.3
4.491066948998196,1.1596336996336996,0.6035897435897435,3.3
4.495610885001952,1.2531135531135529,0.9065934065934066,2.3643956043956043
4.4958639229953405,1.2531135531135529,0.9065934065934066,2.3643956043956043
4.502228188001027,1.2531135531135529,0.9065934065934066,2.3643956043956043
4.507256652999786,1.2531135531135529,0.9065934065934066,2.3643956043956043
4.510178004995396,1.2531135531135529,0.9065934065934066,2.3643956043956043
4.514390477997949,0.0,0.11765567765567764,0.8969230769230768
4.515331427995989,0.0,0.11765567765567764,0.8969230769230768
4.516210750996834,0.0,0.11765567765567764,0.8969230769230768
4.517757518995495,0.0,0.11765567765567764,0.8969230769230768
4.524167356998078,1.2531135531135529,0.8864468864468864,1.0339194139194139
4.529802003999066,1.2531135531135529,0.8864468864468864,1.0339194139194139
4.53934415999538,1.2531135531135529,0.8864468864468864,1.0339194139194139
4.544023181995726,1.2531135531135529,0.8864468864468864,1.0339194139194139
4.5443362849982805,1.2531135531135529,0.8864468864468864,1.0339194139194139
4.549415139998018,1.2531135531135529,0.8864468864468864,1.0339194139194139
4.555894015997183,0.0,0.09428571428571428,0.6777289377289377
4.5611410959973,0.0,0.09428571428571428,0.6777289377289377
4.561450720000721,0.0,0.09428571428571428,0.6777289377289377
4.566757984001015,0.0,0.09428571428571428,0.6777289377289377
4.570409348001704,0.0,0.09428571428571428,0.6777289377289377
4.577904630001285,0.0,0.09428571428571428,0.6777289377289377
4.584924588001741,0.0,0.09428571428571428,0.6777289377289377
4.589500923997548,0.0,0.17648351648351646,0.8816117216117215
4.594871980996686,0.0,0.17648351648351646,0.8816117216117215
4.597210811996774,0.0,0.17648351648351646,0.8816117216117215
4.597466220999195,0.0,0.17648351648351646,0.8816117216117215
4.604979404997721,0.0,0.17648351648351646,0.8816117216117215
4.609046320998459,0.0,0.17648351648351646,0.8816117216117215
4.612823088995356,0.0,0.18615384615384614,1.1684981684981686
4.61760390499694,0.0,0.18615384615384614,1.1684981684981686
4.6179902520016185,1.2732600732600732,0.8372893772893772,0.9162637362637363
4.624597328998789,1.0073260073260073,0.8018315018315018,0.3465201465201465
4.628525981999701,1.0073260073260073,0.8018315018315018,0.3465201465201465
4.632534418997238,1.0073260073260073,0.8018315018315018,0.3465201465201465
4.6381724730017595,1.0073260073260073,0.8018315018315018,0.3465201465201465
4.644351746996108,0.5874725274725274,0.5874725274725274,0.7615384615384615
4.6483536109954,0.0,0.11523809523809524,1.062930402930403
4.653781870001694,0.0,0.11523809523809524,1.062930402930403
4.654006028998992,0.6922344322344323,0.6938461538461538,2.7818315018315016
4.662341472998378,0.3553846153846154,0.2482051282051282,1.6165567765567763
4.670125390999601,0.3553846153846154,0.2482051282051282,1.6165567765567763
4.67422732799605,0.3553846153846154,0.2482051282051282,1.6165567765567763
4.676630836002005,0.3553846153846154,0.2482051282051282,1.6165567765567763
4.676878909995139,1.1306227106227105,0.622124542124542,3.249230769230769
4.6827334459958365,1.1306227106227105,0.622124542124542,3.249230769230769
4.682830008001474,0.0008058608058608059,0.2562637362637363,1.0524542124542122
4.694979480998882,0.0008058608058608059,0.2562637362637363,1.0524542124542122
4.703516486995795,0.0,0.04271062271062271,0.9315750915750916
4.712338220997481,0.25868131868131866,0.40937728937728934,1.1298168498168497
4.7240639769952395,0.25868131868131866,0.40937728937728934,1.1298168498168497
4.7357930229991325,0.25868131868131866,0.40937728937728934,1.1298168498168497
4.747394918995269,0.0,0.08783882783882783,0.7486446886446886
4.749324135002098,0.0,0.08783882783882783,0.7486446886446886
4.751197182995384,0.0,0.08783882783882783,0.7486446886446886
4.754744322999613,0.0,0.08783882783882783,0.7486446886446886
4.760823053999047,0.0,0.08783882783882783,0.7486446886446886
4.76507992400002,0.0,0.08783882783882783,0.7486446886446886
4.765365043000202,0.0,0.13699633699633698,0.8630769230769231
4.777609931996267,0.0,0.13699633699633698,0.8630769230769231
4.7822158279959694,1.24021978021978,0.8469597069597068,2.2217582417582418
4.782378003001213,1.24021978021978,0.8469597069597068,2.2217582417582418
4.791717909996805,1.24021978021978,0.8469597069597068,2.2217582417582418
4.7971039389958605,1.24021978021978,0.8469597069597068,2.2217582417582418
4.798989069000527,1.24021978021978,0.8469597069597068,2.2217582417582418
4.800956651000888,1.24021978021978,0.8469597069597068,2.2217582417582418
4.803816923995328,0.0,0.1241025641025641,0.9791208791208791
4.808319024996308,0.0,0.1241025641025641,0.9791208791208791
4.814300665995688,0.0,0.1676190476190476,1.0967765567765566
4.821719150997524,1.2386080586080586,0.8574358974358974,2.277362637362637
4.826377108998713,1.278901098901099,0.8816117216117215,0.8252014652014652
4.8320135210015,1.278901098901099,0.8816117216117215,0.8252014652014652
4.832234964997042,1.278901098901099,0.8816117216117215,0.8252014652014652
4.840508150999085,1.278901098901099,0.8816117216117215,0.8252014652014652
4.844703621994995,1.0879120879120878,0.5866666666666667,3.2597069597069597
4.847105704997375,1.0879120879120878,0.5866666666666667,3.2597069597069597
4.8472476249953615,1.0879120879120878,0.5866666666666667,3.2597069597069597
4.854654383001616,1.0879120879120878,0.5866666666666667,3.2597069597069597
4.858013935998315,1.1846153846153846,0.805054945054945,1.9566300366300364
4.858301880994986,1.1846153846153846,0.805054945054945,1.9566300366300364
4.8638975489957375,1.1846153846153846,0.805054945054945,1.9566300366300364
4.8641983839988825,1.1846153846153846,0.805054945054945,1.9566300366300364
4.870384224996087,1.1846153846153846,0.805054945054945,1.9566300366300364
4.875757846995839,1.519047619047619,0.7051282051282051,3.0227838827838824
4.876051565996022,0.954945054945055,0.8574358974358974,2.8253479853479853
4.880656658999214,0.954945054945055,0.8574358974358974,2.8253479853479853
4.880964819996734,0.954945054945055,0.8574358974358974,2.8253479853479853
4.887860199996794,0.0,0.07333333333333333,0.8646886446886447
4.89152677400125,0.17567765567765567,0.3505494505494505,1.166080586080586
4.891609615995549,0.0,0.04351648351648352,0.7244688644688644
4.8976167689979775,0.0,0.04351648351648352,0.7244688644688644
4.905583888001274,1.1338461538461537,0.7687912087912088,1.116923076923077
4.9089189160004025,1.1338461538461537,0.7687912087912088,1.116923076923077
4.909195722997538,1.1338461538461537,0.7687912087912088,1.116923076923077
4.914350145998469,1.1338461538461537,0.7687912087912088,1.116923076923077
4.920270235998032,0.3312087912087912,0.1692307692307692,1.71003663003663
4.923760662000859,1.0645421245421245,0.5181684981684981,2.9760439560439558
4.924019965001207,1.0645421245421245,0.5181684981684981,2.9760439560439558
4.928636218995962,1.0645421245421245,0.5181684981684981,2.9760439560439558
4.929547259001993,1.0645421245421245,0.5181684981684981,2.9760439560439558
4.931146130998968,1.0645421245421245,0.5181684981684981,2.9760439560439558
4.937529588998586,1.36996336996337,1.0274725274725274,2.5175091575091573
4.942367012998147,1.36996336996337,1.0274725274725274,2.5175091575091573
4.946100820001448,0.3642490842490842,0.5093040293040293,1.17010989010989
4.95277940199594,0.3642490842490842,0.5093040293040293,1.17010989010989
4.9582839099966804,0.0,0.1112087912087912,0.8139194139194139
4.968491317995358,0.30622710622710625,0.3843956043956044,2.5175091575091573
4.97607928999787,0.09106227106227105,0.28205128205128205,1.1709157509157508
4.982147256996541,0.09106227106227105,0.28205128205128205,1.1709157509157508
4.988174762002018,0.09106227106227105,0.28205128205128205,1.1709157509157508
4.991513012995711,0.21999999999999997,0.332014652014652,1.5287179487179487
4.992408344995056,0.21999999999999997,0.332014652014652,1.5287179487179487
4.994007565001084,0.21999999999999997,0.332014652014652,1.5287179487179487
4.997783337996225,0.21999999999999997,0.332014652014652,1.5287179487179487
5.005439073000161,0.21999999999999997,0.332014652014652,1.5287179487179487
5.009987418998207,0.03223443223443223,0.16117216117216115,0.9025641025641026
5.010168232001888,0.03223443223443223,0.16117216117216115,0.9025641025641026
5.017312755000603,0.03223443223443223,0.16117216117216115,0.9025641025641026
5.024388537996856,0.03223443223443223,0.16117216117216115,0.9025641025641026
5.029058277999866,0.16278388278388278,0.27882783882783885,0.8832234432234431
5.02920305999578,0.8389010989010988,0.4657875457875458,1.9501831501831501
5.034811527999409,0.8389010989010988,0.4657875457875458,1.9501831501831501
5.036492002996965,0.8389010989010988,0.4657875457875458,1.9501831501831501
5.039216179000505,0.8389010989010988,0.4657875457875458,1.9501831501831501
5.043142805996467,0.8389010989010988,0.4657875457875458,1.9501831501831501
5.047607674001483,0.8389010989010988,0.4657875457875458,1.9501831501831501
5.048484029000974,0.8389010989010988,0.4657875457875458,1.9501831501831501
5.050049024997861,0.8389010989010988,0.4657875457875458,1.9501831501831501
5.055548600001202,0.8389010989010988,0.4657875457875458,1.9501831501831501
5.056379162997473,0.8389010989010988,0.4657875457875458,1.9501831501831501
5.057998438998766,0.8389010989010988,0.4657875457875458,1.9501831501831501
5.062085582998407,0.8389010989010988,0.4657875457875458,1.9501831501831501
5.06466289099626,0.8389010989010988,0.4657875457875458,1.9501831501831501
5.070516324994969,0.24901098901098898,0.40776556776556777,1.1942857142857142
5.070754754997324,0.24901098901098898,0.40776556776556777,1.1942857142857142
5.076741168995795,0.24901098901098898,0.40776556776556777,1.1942857142857142
5.082342185000016,0.24901098901098898,0.40776556776556777,1.1942857142857142
5.08253772900207,0.24901098901098898,0.40776556776556777,1.1942857142857142
5.088361937996524,0.24901098901098898,0.40776556776556777,1.1942857142857142
5.093170765998366,0.24901098901098898,0.40776556776556777,1.1942857142857142
5.101810659994953,0.0,0.12087912087912088,0.697069597069597
5.106925604995922,0.0,0.12087912087912088,0.697069597069597
5.110755301000609,0.0,0.12087912087912088,0.697069597069597
5.11529178499768,0.0,0.12087912087912088,0.697069597069597
5.115444525996281,0.0,0.12087912087912088,0.697069597069597
5.122750292001001,0.0,0.12087912087912088,0.697069597069597
5.126700480999716,0.0,0.12087912087912088,0.697069597069597
5.131103694999183,0.0,0.12087912087912088,0.697069597069597
5.132027239000308,0.0,0.12087912087912088,0.697069597069597
5.13351893700019,0.0,0.12087912087912088,0.697069597069597
5.140264907997334,0.0,0.12087912087912088,0.697069597069597
5.1441050299981725,0.28285714285714286,0.4174358974358974,1.0242490842490841
5.149349719999009,0.28285714285714286,0.4174358974358974,1.0242490842490841
5.15527674400073,0.28285714285714286,0.4174358974358974,1.0242490842490841
5.158627327997237,0.28285714285714286,0.4174358974358974,1.0242490842490841
5.159492665996368,0.28285714285714286,0.4174358974358974,1.0242490842490841
5.161126031001913,0.28285714285714286,0.4174358974358974,1.0242490842490841
5.164908717000799,0.28285714285714286,0.4174358974358974,1.0242490842490841
5.170237364000059,0.28285714285714286,0.4174358974358974,1.0242490842490841
5.172501100998488,0.0,0.06124542124542124,0.6986813186813187
5.17336460200022,1.3393406593406594,0.9605860805860806,2.3635897435897433
5.17491327499738,1.3393406593406594,0.9605860805860806,2.3635897435897433
5.179118398002174,1.3393406593406594,0.9605860805860806,2.3635897435897433
5.181248000000778,1.3393406593406594,0.9605860805860806,2.3635897435897433
5.182121783000184,1.3393406593406594,0.9605860805860806,2.3635897435897433
5.183663318995968,1.3393406593406594,0.9605860805860806,2.3635897435897433
5.187931123000453,1.3393406593406594,0.9605860805860806,2.3635897435897433
5.190043877999415,0.0,0.1668131868131868,1.220879120879121
5.19086946999596,0.0,0.1668131868131868,1.220879120879121
5.193161655995937,0.0,0.1668131868131868,1.220879120879121
5.193306092995044,0.0,0.1668131868131868,1.220879120879121
5.198226143998909,0.0,0.1668131868131868,1.220879120879121
5.204748793999897,0.0,0.1668131868131868,1.220879120879121
5.208999652000784,0.3102564102564102,0.19824175824175824,1.1942857142857142
5.211231445995509,0.0,0.12893772893772892,0.8840293040293039
5.21162594499765,0.0,0.12893772893772892,0.8840293040293039
5.216908770002192,0.0,0.12893772893772892,0.8840293040293039
5.219224476997624,0.0,0.12893772893772892,0.8840293040293039
5.219449386000633,0.0,0.12893772893772892,0.8840293040293039
5.224762631994963,0.4585347985347985,0.6019780219780219,1.1757509157509156
5.226383495995833,0.4585347985347985,0.6019780219780219,1.1757509157509156
5.230800773999363,0.4585347985347985,0.6019780219780219,1.1757509157509156
5.231685826001922,0.4585347985347985,0.6019780219780219,1.1757509157509156
5.23328420100006,0.4585347985347985,0.6019780219780219,1.1757509157509156
5.23778542799846,0.4585347985347985,0.6019780219780219,1.1757509157509156
5.238775598001666,0.4585347985347985,0.6019780219780219,1.1757509157509156
5.239633307995973,0.4585347985347985,0.6019780219780219,1.1757509157509156
5.241893414997321,0.4585347985347985,0.6019780219780219,1.1757509157509156
5.242218050996598,0.4585347985347985,0.6019780219780219,1.1757509157509156
5.247875772001862,0.4585347985347985,0.6019780219780219,1.1757509157509156
5.249407686002087,0.4585347985347985,0.6019780219780219,1.1757509157509156
5.254904937995889,0.4585347985347985,0.6019780219780219,1.1757509157509156
5.2550901799986605,0.4585347985347985,0.6019780219780219,1.1757509157509156
5.260434930998599,0.4585347985347985,0.6019780219780219,1.1757509157509156
5.263573422998888,0.4585347985347985,0.6019780219780219,1.1757509157509156
5.265264303001459,0.4585347985347985,0.6019780219780219,1.1757509157509156
5.26831860600214,0.4585347985347985,0.6019780219780219,1.1757509157509156
5.270584450001479,0.4585347985347985,0.6019780219780219,1.1757509157509156
5.270884272998956,0.4585347985347985,0.6019780219780219,1.1757509157509156
5.276483281995752,0.4585347985347985,0.6019780219780219,1.1757509157509156
5.277308789001836,1.087106227106227,0.8993406593406592,3.0606593406593405
5.278901414996653,1.087106227106227,0.8993406593406592,3.0606593406593405
5.282602772000246,1.087106227106227,0.8993406593406592,3.0606593406593405
5.287759082995763,1.087106227106227,0.8993406593406592,3.0606593406593405
5.291502387000946,1.087106227106227,0.8993406593406592,3.0606593406593405
5.300128615999711,1.3578754578754577,0.9259340659340659,2.2185347985347987
5.3091230540012475,1.3578754578754577,0.9259340659340659,2.2185347985347987
5.313777356001083,0.13619047619047617,0.3537728937728937,1.157216117216117
5.313996668999607,0.13619047619047617,0.3537728937728937,1.157216117216117
5.3184811679966515,0.13619047619047617,0.3537728937728937,1.157216117216117
5.32004517599853,0.13619047619047617,0.3537728937728937,1.157216117216117
5.323786770997685,0.13619047619047617,0.3537728937728937,1.157216117216117
5.323913729000196,0.13619047619047617,0.3537728937728937,1.157216117216117
5.329101117000391,0.13619047619047617,0.3537728937728937,1.157216117216117
5.332221478995052,0.0,0.17487179487179486,1.0685714285714285
5.33447840900044,0.0,0.1112087912087912,0.6728937728937728
5.334778174001258,0.0,0.1112087912087912,0.6728937728937728
5.339596466998046,0.0,0.1112087912087912,0.6728937728937728
5.344827565997548,1.0395604395604394,0.8203663003663003,0.3465201465201465
5.347766760001832,0.0419047619047619,0.04996336996336996,0.9871794871794871
5.350792436001939,0.0419047619047619,0.04996336996336996,0.9871794871794871
5.3531744360007,0.0419047619047619,0.04996336996336996,0.9871794871794871
5.353335189996869,0.0419047619047619,0.04996336996336996,0.9871794871794871
5.359896520996699,0.0419047619047619,0.04996336996336996,0.9871794871794871
5.366427337001369,0.6463003663003662,0.6229304029304029,0.7824908424908424
5.371733431995381,0.6463003663003662,0.6229304029304029,0.7824908424908424
5.372036544002185,0.6463003663003662,0.6229304029304029,0.7824908424908424
5.381104414998845,0.6463003663003662,0.6229304029304029,0.7824908424908424
5.390103042002011,0.2909157509157509,0.12007326007326008,2.1717948717948716
5.396175541995035,0.2909157509157509,0.12007326007326008,2.1717948717948716
5.400104487001954,0.2909157509157509,0.12007326007326008,2.1717948717948716
5.407411330998002,0.2909157509157509,0.12007326007326008,2.1717948717948716
5.412300181997125,0.2909157509157509,0.12007326007326008,2.1717948717948716
5.419044465001207,0.2909157509157509,0.12007326007326008,2.1717948717948716
5.423178637996898,0.2909157509157509,0.12007326007326008,2.1717948717948716
5.424848561000545,0.13538461538461538,0.24659340659340656,0.7905494505494506
5.429594640998403,0.13538461538461538,0.24659340659340656,0.7905494505494506
5.4297329789988,0.0,0.14263736263736262,1.0806593406593406
5.438283675001003,0.0,0.14263736263736262,1.0806593406593406
5.442494957002054,0.4029304029304029,0.4851282051282051,2.473992673992674
5.444823601996177,0.35135531135531134,0.4778754578754579,1.0919413919413918
5.445031700000982,0.35135531135531134,0.4778754578754579,1.0919413919413918
5.449931432995072,0.35135531135531134,0.4778754578754579,1.0919413919413918
5.457479193995823,0.0,0.083003663003663,0.7397802197802198
5.463575406996824,0.0,0.083003663003663,0.7397802197802198
5.468189861996507,0.7333333333333333,0.7123809523809523,0.8389010989010988
5.475739786001213,0.0,0.051575091575091575,0.9992673992673992
5.480263553996338,0.0,0.051575091575091575,0.9992673992673992
5.481085236999206,0.0,0.051575091575091575,0.9992673992673992
5.482927502001985,0.0,0.051575091575091575,0.9992673992673992
5.486908658000175,0.0,0.051575091575091575,0.9992673992673992
5.489753905996622,0.0,0.051575091575091575,0.9992673992673992
5.492983855001512,0.0,0.051575091575091575,0.9992673992673992
5.494084584999655,0.0,0.051575091575091575,0.9992673992673992
5.4943715059998794,0.0,0.051575091575091575,0.9992673992673992
5.501794755997253,0.0,0.051575091575091575,0.9992673992673992
5.507562933002191,0.0,0.051575091575091575,0.9992673992673992
5.512070001997927,0.0,0.051575091575091575,0.9992673992673992
5.512296185996092,0.0,0.051575091575091575,0.9992673992673992
5.517694860995107,0.0,0.051575091575091575,0.9992673992673992
5.519901228995877,0.0,0.051575091575091575,0.9992673992673992
5.52018361500086,0.0,0.051575091575091575,0.9992673992673992
5.526831474999199,0.0,0.051575091575091575,0.9992673992673992
5.530854999000439,0.0,0.051575091575091575,0.9992673992673992
5.534689890999289,0.0,0.051575091575091575,0.9992673992673992
5.539787023000827,0.39406593406593404,0.23047619047619047,1.7857875457875456
5.542806484998437,1.248278388278388,0.8389010989010988,0.8211721611721612
5.544416821001505,1.248278388278388,0.8389010989010988,0.8211721611721612
5.548353549995227,1.248278388278388,0.8389010989010988,0.8211721611721612
5.553998770999897,0.0,0.1378021978021978,1.0315018315018314
5.5541349630002514,0.0,0.1378021978021978,1.0315018315018314
5.560053326997149,0.0,0.1378021978021978,1.0315018315018314
5.564610707995598,0.0,0.1378021978021978,1.0315018315018314
5.565408624999691,0.0,0.1378021978021978,1.0315018315018314
5.566968842998904,0.0,0.1378021978021978,1.0315018315018314
5.572136479000619,1.2982417582417582,0.6084249084249085,3.108205128205128
5.574505929995212,1.2982417582417582,0.6084249084249085,3.108205128205128
5.574724785998114,1.2982417582417582,0.6084249084249085,3.108205128205128
5.579609622996941,1.2982417582417582,0.6084249084249085,3.108205128205128
5.5856759090020205,1.2982417582417582,0.6084249084249085,3.108205128205128
5.5900576549975085,1.2982417582417582,0.6084249084249085,3.108205128205128
5.590332471998408,1.2982417582417582,0.6084249084249085,3.108205128205128
5.597136563999811,1.2982417582417582,0.6084249084249085,3.108205128205128
5.603017438996176,1.2982417582417582,0.6084249084249085,3.108205128205128
5.611353975000384,0.3223443223443223,0.4174358974358974,1.1048351648351646
5.618931177996274,1.0178021978021978,0.6962637362637363,1.9977289377289376
5.625006401001883,1.0178021978021978,0.6962637362637363,1.9977289377289376
5.62811971300107,1.0178021978021978,0.6962637362637363,1.9977289377289376
5.631059576000553,1.0178021978021978,0.6962637362637363,1.9977289377289376
5.634126605000347,1.0178021978021978,0.6962637362637363,1.9977289377289376
5.636955720001424,1.286959706959707,0.9621978021978022,2.5723076923076924
5.639820004995272,0.8534065934065934,0.5931135531135531,1.523076923076923
5.64343278099841,1.0306959706959706,0.7623443223443224,0.3586080586080586
5.643617989997438,1.0306959706959706,0.7623443223443224,0.3586080586080586
5.649059030998615,1.0306959706959706,0.7623443223443224,0.3586080586080586
5.6499629669997375,1.0306959706959706,0.7623443223443224,0.3586080586080586
5.651817113997822,1.0306959706959706,0.7623443223443224,0.3586080586080586
5.6559633430006215,1.0306959706959706,0.7623443223443224,0.3586080586080586
5.656301392002206,1.0306959706959706,0.7623443223443224,0.3586080586080586
5.661573400000634,1.1104761904761904,0.5931135531135531,3.244395604395604
5.666148525997414,1.1104761904761904,0.5931135531135531,3.244395604395604
5.666368051999598,1.1104761904761904,0.5931135531135531,3.244395604395604
5.675873918000434,1.1104761904761904,0.5931135531135531,3.244395604395604
5.683024523001222,1.1104761904761904,0.5931135531135531,3.244395604395604
5.689373518995126,1.1104761904761904,0.5931135531135531,3.244395604395604
5.693053664996114,1.1104761904761904,0.5931135531135531,3.244395604395604
5.6983625540015055,1.2998534798534798,0.8558241758241758,2.0444688644688642
5.701939785001741,1.2998534798534798,0.8558241758241758,2.0444688644688642
5.70244371300214,1.2998534798534798,0.8558241758241758,2.0444688644688642
5.7059541959970375,1.2998534798534798,0.8558241758241758,2.0444688644688642
5.711270690000674,1.2998534798534798,0.8558241758241758,2.0444688644688642
5.7145013049957925,1.2998534798534798,0.8558241758241758,2.0444688644688642
5.715325115001178,0.32395604395604394,0.32798534798534795,2.557802197802198
5.71693636100099,0.32395604395604394,0.32798534798534795,2.557802197802198
5.723828526999569,0.32395604395604394,0.32798534798534795,2.557802197802198
5.727737909997813,0.32395604395604394,0.32798534798534795,2.557802197802198
5.733017416998337,0.32395604395604394,0.32798534798534795,2.557802197802198
5.734076911998272,0.32395604395604394,0.32798534798534795,2.557802197802198
5.735556276995339,0.32395604395604394,0.32798534798534795,2.557802197802198
5.742982251002104,0.32395604395604394,0.32798534798534795,2.557802197802198
5.748678921001556,0.32395604395604394,0.32798534798534795,2.557802197802198
5.748877694000839,0.855018315018315,0.45692307692307693,2.3692307692307693
5.757703222996497,0.855018315018315,0.45692307692307693,2.3692307692307693
5.761484352995467,0.6793406593406592,0.7123809523809523,2.7866666666666666
5.766041609997046,0.4561172161172161,0.49882783882783877,0.9396336996336996
5.766287166996335,0.0,0.15956043956043955,1.17010989010989
5.776912442997855,0.0,0.15956043956043955,1.17010989010989
5.782229103999271,0.0,0.15956043956043955,1.17010989010989
5.785767426001257,0.0,0.15956043956043955,1.17010989010989
5.793946143996436,0.0,0.15956043956043955,1.17010989010989
5.798587202996714,0.0,0.15956043956043955,1.17010989010989
5.798827250000613,0.0,0.15956043956043955,1.17010989010989
5.806622251999215,0.0,0.15956043956043955,1.17010989010989
5.810479020998173,0.0,0.15956043956043955,1.17010989010989
5.816875917997095,0.0,0.15956043956043955,1.17010989010989
5.823266380997666,0.423076923076923,0.29978021978021974,2.5215384615384613
5.827667769000982,0.423076923076923,0.29978021978021974,2.5215384615384613
5.829242683998018,0.423076923076923,0.29978021978021974,2.5215384615384613
5.83325785100169,0.423076923076923,0.29978021978021974,2.5215384615384613
5.8393341150003835,0.9202930402930403,0.6084249084249085,1.5810989010989012
5.842466563000926,0.9202930402930403,0.6084249084249085,1.5810989010989012
5.844704973002081,0.9202930402930403,0.6084249084249085,1.5810989010989012
5.8449290829958045,0.9202930402930403,0.6084249084249085,1.5810989010989012
5.849387773996568,0.9202930402930403,0.6084249084249085,1.5810989010989012
5.851658902000054,0.9202930402930403,0.6084249084249085,1.5810989010989012
5.851859393995255,0.1241025641025641,0.2562637362637363,0.8767765567765567
5.858279690997733,0.1241025641025641,0.2562637362637363,0.8767765567765567
5.864820130998851,1.0806593406593406,0.8284249084249083,0.5415384615384615
5.870125392000773,0.2232234432234432,0.49399267399267394,0.958974358974359
5.871607337001478,1.3844688644688645,0.5842490842490843,3.1533333333333333
5.878610341998865,1.3844688644688645,0.5842490842490843,3.1533333333333333
5.884322414000053,1.3844688644688645,0.5842490842490843,3.1533333333333333
5.8908653749967925,1.3844688644688645,0.5842490842490843,3.1533333333333333
5.894813291997707,1.3498168498168497,0.5504029304029303,3.2057142857142855
5.8993561809984385,1.3498168498168497,0.5504029304029303,3.2057142857142855
5.899627897997561,1.3498168498168497,0.5504029304029303,3.2057142857142855
5.90569569899526,1.3498168498168497,0.5504029304029303,3.2057142857142855
5.909556391998194,1.3498168498168497,0.5504029304029303,3.2057142857142855
5.913272179997875,1.3498168498168497,0.5504029304029303,3.2057142857142855
5.920509734001826,1.3498168498168497,0.5504029304029303,3.2057142857142855
5.924032609000278,0.6398534798534798,0.618095238095238,0.8082783882783882
5.924172346996784,0.6398534798534798,0.618095238095238,0.8082783882783882
5.929559372998483,0.6398534798534798,0.618095238095238,0.8082783882783882
5.9321258979980485,0.6398534798534798,0.618095238095238,0.8082783882783882
5.94017106499814,0.6398534798534798,0.618095238095238,0.8082783882783882
5.945266030001221,0.6398534798534798,0.618095238095238,0.8082783882783882
5.94906878600159,0.6398534798534798,0.618095238095238,0.8082783882783882
5.956290884001646,0.6398534798534798,0.618095238095238,0.8082783882783882
5.961889045996941,0.6398534798534798,0.618095238095238,0.8082783882783882
5.96730684999784,0.3779487179487179,0.6809523809523809,1.1056410256410254
5.969686432996241,0.3779487179487179,0.6809523809523809,1.1056410256410254
5.969871194000007,0.3779487179487179,0.6809523809523809,1.1056410256410254
5.97471922099794,0.0,0.6785347985347985,1.552087912087912
5.979522023997561,0.0,0.6785347985347985,1.552087912087912
5.979616926997551,0.0,0.6785347985347985,1.552087912087912
5.9858619020014885,0.0,0.6785347985347985,1.552087912087912
5.9894610319970525,0.0,0.6785347985347985,1.552087912087912
5.989613536999968,0.0,0.6785347985347985,1.552087912087912
5.9944637959997635,0.0,0.6785347985347985,1.552087912087912
5.999881031995756,0.0,0.6785347985347985,1.552087912087912
6.0017720319956425,0.0,0.6785347985347985,1.552087912087912
6.0049173289953615,0.0,0.6785347985347985,1.552087912087912
6.005833140996401,0.0,0.6785347985347985,1.552087912087912
6.0074237959997845,0.0,0.6785347985347985,1.552087912087912
6.011379247996956,0.0,0.6785347985347985,1.552087912087912
6.0171310610021465,0.0,0.6785347985347985,1.552087912087912
6.022984066999925,1.216043956043956,0.5649084249084249,3.12029304029304
6.02757551799732,1.216043956043956,0.5649084249084249,3.12029304029304
6.0279088339957525,1.216043956043956,0.5649084249084249,3.12029304029304
6.032263517998217,1.216043956043956,0.5649084249084249,3.12029304029304
6.034030586000881,1.216043956043956,0.5649084249084249,3.12029304029304
6.039100192996557,1.216043956043956,0.5649084249084249,3.12029304029304
6.042627085997083,0.4085714285714286,0.3424908424908425,1.9050549450549448
6.047787115996471,0.4085714285714286,0.3424908424908425,1.9050549450549448
6.051571841999248,0.4085714285714286,0.3424908424908425,1.9050549450549448
6.060069248000218,0.4085714285714286,0.3424908424908425,1.9050549450549448
6.065571350001846,0.4085714285714286,0.3424908424908425,1.9050549450549448
6.067216935996839,0.4085714285714286,0.3424908424908425,1.9050549450549448
6.072737524998956,0.4085714285714286,0.3424908424908425,1.9050549450549448
6.072990731001482,0.4085714285714286,0.3424908424908425,1.9050549450549448
6.078900027998316,0.4085714285714286,0.3424908424908425,1.9050549450549448
6.079068040999118,1.0717948717948718,0.7849084249084248,0.3312087912087912
6.0844605839956785,1.0717948717948718,0.7849084249084248,0.3312087912087912
6.08679992800171,0.5254212454212454,0.7567032967032966,0.9968498168498168
6.093139611999504,0.5254212454212454,0.7567032967032966,0.9968498168498168
6.09704067200073,0.1418315018315018,0.044322344322344324,1.0774358974358973
6.104670314001851,0.4037362637362637,0.423076923076923,2.4836630036630036
6.108484342999873,0.3344322344322344,0.5165567765567766,1.0854945054945053
6.113035105998279,0.3344322344322344,0.5165567765567766,1.0854945054945053
6.113306840001314,0.3344322344322344,0.5165567765567766,1.0854945054945053
6.119547777998378,0.3344322344322344,0.5165567765567766,1.0854945054945053
6.124390985998616,1.0887179487179486,0.8566300366300367,0.356996336996337
6.129062643994985,1.0887179487179486,0.8566300366300367,0.356996336996337
6.129214120999677,0.0,0.08622710622710622,1.1024175824175824
6.136579583995626,0.0,0.08622710622710622,1.1024175824175824
6.14211740099563,0.0,0.08622710622710622,1.1024175824175824
6.147998337997706,0.14666666666666667,0.13538461538461538,0.9557509157509158
6.148138687996834,0.14666666666666667,0.13538461538461538,0.9557509157509158
6.154529824001656,0.14666666666666667,0.13538461538461538,0.9557509157509158
6.1587371839996194,0.14666666666666667,0.13538461538461538,0.9557509157509158
6.159680550998019,0.14666666666666667,0.13538461538461538,0.9557509157509158
6.1606051069975365,0.14666666666666667,0.13538461538461538,0.9557509157509158
6.162327564001316,0.36344322344322344,0.4520879120879121,1.1394871794871795
6.16535549100081,0.36344322344322344,0.4520879120879121,1.1394871794871795
6.1683322620010586,0.36344322344322344,0.4520879120879121,1.1394871794871795
6.171014342995477,0.8679120879120878,0.5641025641025641,2.76007326007326
6.174859065999044,0.8679120879120878,0.5641025641025641,2.76007326007326
6.179328081001586,0.8679120879120878,0.5641025641025641,2.76007326007326
6.1808759049963555,0.946080586080586,0.7188278388278388,3.1976556776556775
6.185504381995997,0.946080586080586,0.7188278388278388,3.1976556776556775
6.185697640998114,0.0,0.06205128205128205,0.8066666666666666
6.191152993000287,0.0,0.06205128205128205,0.8066666666666666
6.192073377998895,0.0,0.06205128205128205,0.8066666666666666
6.193147088000842,0.0,0.06205128205128205,0.8066666666666666
6.194089689000975,0.0,0.06205128205128205,0.8066666666666666
6.194930740995915,0.0,0.06205128205128205,0.8066666666666666
6.196481097002106,0.0,0.06205128205128205,0.8066666666666666
6.200899550000031,0.0,0.06205128205128205,0.8066666666666666
6.201936931996897,0.4512820512820513,0.5262271062271061,1.0355311355311354
6.202839275996666,0.4512820512820513,0.5262271062271061,1.0355311355311354
6.203732342000876,0.4512820512820513,0.5262271062271061,1.0355311355311354
6.205466975996387,0.4512820512820513,0.5262271062271061,1.0355311355311354
6.2094959519963595,0.4512820512820513,0.5262271062271061,1.0355311355311354
6.212613646996033,0.0,0.14505494505494507,1.129010989010989
6.214932048002083,0.0,0.14505494505494507,1.129010989010989
6.215107744996203,0.0,0.14505494505494507,1.129010989010989
6.219697357999394,0.0,0.14505494505494507,1.129010989010989
6.220005835995835,0.0,0.14505494505494507,1.129010989010989
6.2255877110001165,0.0,0.14505494505494507,1.129010989010989
6.226470333996986,0.06205128205128205,0.11926739926739927,1.3377289377289376
6.228265885998553,0.06205128205128205,0.11926739926739927,1.3377289377289376
6.231400176999159,0.06205128205128205,0.11926739926739927,1.3377289377289376
6.236090821999824,0.06205128205128205,0.11926739926739927,1.3377289377289376
6.241611851997732,0.06205128205128205,0.11926739926739927,1.3377289377289376
6.241789849002089,0.8066666666666666,0.6003663003663003,0.4126007326007326
6.246937527001137,0.0,0.07413919413919413,0.6052014652014651
6.250694948001183,0.0,0.07413919413919413,0.6052014652014651
6.258806726997136,0.0,0.1087912087912088,1.1830036630036629
6.263979545998154,0.0,0.1087912087912088,1.1830036630036629
6.269551428995328,0.0,0.1087912087912088,1.1830036630036629
6.2697956139963935,0.0,0.1087912087912088,1.1830036630036629
6.276090072999068,0.0,0.1087912087912088,1.1830036630036629
6.279579777998151,1.1233699633699634,0.6865934065934066,3.3
6.279850328995963,1.1233699633699634,0.6865934065934066,3.3
6.28551120100019,1.1233699633699634,0.6865934065934066,3.3
6.285758441001235,0.024175824175824173,0.2917216117216117,1.1314285714285715
6.291656870002043,1.3909157509157508,0.8348717948717947,3.3
6.29631552399951,1.3909157509157508,0.8348717948717947,3.3
6.296524694997061,1.3909157509157508,0.8348717948717947,3.3
6.301113198998792,1.3909157509157508,0.8348717948717947,3.3
6.302086260999204,1.224102564102564,0.5673260073260072,1.1515750915750915
6.302346327000123,1.224102564102564,0.5673260073260072,1.1515750915750915
6.307605488997069,1.224102564102564,0.5673260073260072,1.1515750915750915
6.310799833998317,1.224102564102564,0.5673260073260072,1.1515750915750915
6.312692891995539,1.224102564102564,0.5673260073260072,1.1515750915750915
6.315074596997874,1.224102564102564,0.5673260073260072,1.1515750915750915
6.320475483000337,1.224102564102564,0.5673260073260072,1.1515750915750915
6.32341098300094,1.224102564102564,0.5673260073260072,1.1515750915750915
6.326352236996172,1.224102564102564,0.5673260073260072,1.1515750915750915
6.329268708999734,1.224102564102564,0.5673260073260072,1.1515750915750915
6.332122004001576,1.224102564102564,0.5673260073260072,1.1515750915750915
6.3356020509963855,0.051575091575091575,0.03948717948717949,0.909010989010989
6.335888585999783,0.925128205128205,0.4182417582417582,2.428058608058608
6.340703171001223,0.925128205128205,0.4182417582417582,2.428058608058608
6.340812409995124,0.925128205128205,0.4182417582417582,2.428058608058608
6.345579754000937,0.925128205128205,0.4182417582417582,2.428058608058608
6.345728713000426,0.925128205128205,0.4182417582417582,2.428058608058608
6.350484536997101,1.1564102564102563,0.8719413919413919,2.5062271062271058
